{
  "AcquisitionMatrixPE": 104,
  "AcquisitionNumber": 1,
  "AcquisitionTime": "16:10:20.202500",
  "BandwidthPerPixelPhaseEncode": 17.17,
  "BaseResolution": 104,
  "BodyPartExamined": "BRAIN",
  "CoilCombinationMethod": "Sum of Squares",
  "ConsistencyInfo": "N4_VE11C_LATEST_20160120",
  "ConversionSoftware": "dcm2niix",
  "ConversionSoftwareVersion": "v1.0.20230411",
  "DerivedVendorReportedEchoSpacing": 0.000560011,
  "DeviceSerialNumber": "167006",
  "DwellTime": 2.1e-06,
  "EchoTime": 0.037,
  "EchoTrainLength": 104,
  "EffectiveEchoSpacing": 0.000560011,
  "FlipAngle": 52,
  "HeudiconvVersion": "0.5.3.post861+ge7d3c7f",
  "ImageComments": "Unaliased MB4/PE3/LB",
  "ImageOrientationPatientDICOM": [0.999063, -0.0431871, -0.00295871, 0.0394279, 0.936054, -0.349641],
  "ImageOrientationText": "Tra>Cor(-20.4)>Sag(-1.0)",
  "ImageType": [
    "ORIGINAL",
    "PRIMARY",
    "M",
    "MB",
    "ND",
    "MOSAIC"
],
  "ImagingFrequency": 123.249733,
  "InPlanePhaseEncodingDirectionDICOM": "COL",
  "InstitutionAddress": "Chemin Queen-Mary 4565,Montreal,District,CA,H3W 1W5",
  "InstitutionName": "IUGM",
  "InstitutionalDepartmentName": "Department",
  "MRAcquisitionType": "2D",
  "MagneticFieldStrength": 3,
  "Manufacturer": "Siemens",
  "ManufacturersModelName": "Prisma_fit",
  "MatrixCoilMode": "SENSE",
  "Modality": "MR",
  "MultibandAccelerationFactor": 4,
  "NonlinearGradientCorrection": false,
  "PartialFourier": 1,
  "PatientPosition": "HFS",
  "PercentPhaseFOV": 100,
  "PercentSampling": 100,
  "PhaseEncodingDirection": "j",
  "PhaseEncodingSteps": 104,
  "PhaseResolution": 1,
  "PixelBandwidth": 2290,
  "ProcedureStepDescription": "video^friends",
  "ProtocolName": "func_task-friends-s07e18b",
  "PulseSequenceDetails": "%CustomerSeq%\\cmrr_mbep2d_bold",
  "ReceiveCoilActiveElements": "HC1-7;NC1,2",
  "ReceiveCoilName": "HeadNeck_64",
  "ReconMatrixPE": 104,
  "RepetitionTime": 1.49,
  "SAR": 0.0702844,
  "ScanOptions": "FS",
  "ScanningSequence": "EP",
  "SequenceName": "epfid2d1_104",
  "SequenceVariant": "SK\\SS",
  "SeriesDescription": "func_task-friends-s07e18b",
  "SeriesNumber": 16,
  "ShimSetting": [591, -7289, -8833, 485, 10, -276, -122, 38],
  "SliceThickness": 2,
  "SliceTiming": [0, 0.7825, 0.0975, 0.8825, 0.195, 0.98, 0.2925, 1.0775, 0.3925, 1.175, 0.49, 1.2725, 0.5875, 1.3725, 0.685, 0, 0.7825, 0.0975, 0.8825, 0.195, 0.98, 0.2925, 1.0775, 0.3925, 1.175, 0.49, 1.2725, 0.5875, 1.3725, 0.685, 0, 0.7825, 0.0975, 0.8825, 0.195, 0.98, 0.2925, 1.0775, 0.3925, 1.175, 0.49, 1.2725, 0.5875, 1.3725, 0.685, 0, 0.7825, 0.0975, 0.8825, 0.195, 0.98, 0.2925, 1.0775, 0.3925, 1.175, 0.49, 1.2725, 0.5875, 1.3725, 0.685],
  "SoftwareVersions": "syngo MR E11",
  "SpacingBetweenSlices": 2,
  "StationName": "MRC35049",
  "TaskName": "s07e18b",
  "TotalReadoutTime": 0.0576811,
  "TxRefAmp": 268.769,
  "WipMemBlock": "956e86f9-d0a9-45de-8156-bd8659445020||Sequence: R017 ve11c/master r/75a17815+; Jun 28 2022 16:32:11 by eja",
  "dcmmeta_affine": [
    [-1.9981251955032349, 0.07885583490133286, -0.0357389971613884, 99.9254150390625],
    [0.0863742008805275, 1.8721073865890503, -0.6983935832977295, -76.84410095214844],
    [-0.005917415488511324, 0.6992823481559753, 1.87375807762146, -69.54048919677734],
    [0.0, 0.0, 0.0, 1.0]
],
  "dcmmeta_reorient_transform": [
    [0.0, -1.0, 0.0, 103.0],
    [1.0, 0.0, 0.0, 0.0],
    [0.0, 0.0, 1.0, 0.0],
    [0.0, 0.0, 0.0, 1.0]
],
  "dcmmeta_shape": [104, 104, 60, 511],
  "dcmmeta_slice_dim": 2,
  "dcmmeta_version": 0.6,
  "global": {
    "const": {
      "AcquisitionMatrix": [104, 0, 0, 104],
      "AngioFlag": "N",
      "BitsAllocated": 16,
      "BitsStored": 16,
      "BodyPartExamined": "BRAIN",
      "Columns": 832,
      "EchoNumbers": 1,
      "EchoTime": 37.0,
      "EchoTrainLength": 104,
      "FlipAngle": 52.0,
      "HighBit": 15,
      "ImageOrientationPatient": [0.99906262088175, -0.0431870999864, -0.0029587077698, 0.03942791649216, 0.93605367532905, -0.3496411822198],
      "ImagePositionPatient": [-864.06867550602, -765.98982474579, 259.17831690639],
      "ImageType": [
        "ORIGINAL",
        "PRIMARY",
        "M",
        "MB",
        "ND",
        "MOSAIC"
],
      "ImagedNucleus": "1H",
      "ImagingFrequency": 123.249733,
      "InPlanePhaseEncodingDirection": "COL",
      "MRAcquisitionType": "2D",
      "MagneticFieldStrength": 3.0,
      "Manufacturer": "SIEMENS",
      "ManufacturerModelName": "Prisma_fit",
      "Modality": "MR",
      "NumberOfAverages": 1.0,
      "NumberOfPhaseEncodingSteps": 104,
      "PercentPhaseFieldOfView": 100.0,
      "PercentSampling": 100.0,
      "PerformedProcedureStepStartTime": "153543.121000",
      "PhotometricInterpretation": "MONOCHROME2",
      "PixelBandwidth": 2290.0,
      "PixelRepresentation": 0,
      "PixelSpacing": [2.0, 2.0],
      "ProtocolName": "func_task-friends-s07e18b",
      "RepetitionTime": 1490.0,
      "Rows": 832,
      "SAR": 0.07028436331577,
      "SamplesPerPixel": 1,
      "ScanOptions": "FS",
      "ScanningSequence": "EP",
      "SequenceName": "epfid2d1_104",
      "SequenceVariant": [
        "SK",
        "SS"
],
      "SeriesDescription": "func_task-friends-s07e18b",
      "SeriesNumber": 16,
      "SeriesTime": "161112.477000",
      "SliceLocation": -40.102927521771,
      "SliceThickness": 2.0,
      "SmallestImagePixelValue": 0,
      "SoftwareVersions": "syngo MR E11",
      "SpacingBetweenSlices": 2.0000000499134,
      "SpecificCharacterSet": "ISO_IR 100",
      "StudyID": "1",
      "StudyTime": "153543.032000",
      "TransmitCoilName": "Body",
      "VariableFlipAngleFlag": "N",
      "WindowCenterWidthExplanation": "Algo1",
      "dBdt": 0.0},
    "slices": {}
  },
  "time": {
    "samples": {
      "AcquisitionNumber": [1, 2, 3, 4, 5, 6, 7, 8, 9, 10, 11, 12, 13, 14, 15, 16, 17, 18, 19, 20, 21, 22, 23, 24, 25, 26, 27, 28, 29, 30, 31, 32, 33, 34, 35, 36, 37, 38, 39, 40, 41, 42, 43, 44, 45, 46, 47, 48, 49, 50, 51, 52, 53, 54, 55, 56, 57, 58, 59, 60, 61, 62, 63, 64, 65, 66, 67, 68, 69, 70, 71, 72, 73, 74, 75, 76, 77, 78, 79, 80, 81, 82, 83, 84, 85, 86, 87, 88, 89, 90, 91, 92, 93, 94, 95, 96, 97, 98, 99, 100, 101, 102, 103, 104, 105, 106, 107, 108, 109, 110, 111, 112, 113, 114, 115, 116, 117, 118, 119, 120, 121, 122, 123, 124, 125, 126, 127, 128, 129, 130, 131, 132, 133, 134, 135, 136, 137, 138, 139, 140, 141, 142, 143, 144, 145, 146, 147, 148, 149, 150, 151, 152, 153, 154, 155, 156, 157, 158, 159, 160, 161, 162, 163, 164, 165, 166, 167, 168, 169, 170, 171, 172, 173, 174, 175, 176, 177, 178, 179, 180, 181, 182, 183, 184, 185, 186, 187, 188, 189, 190, 191, 192, 193, 194, 195, 196, 197, 198, 199, 200, 201, 202, 203, 204, 205, 206, 207, 208, 209, 210, 211, 212, 213, 214, 215, 216, 217, 218, 219, 220, 221, 222, 223, 224, 225, 226, 227, 228, 229, 230, 231, 232, 233, 234, 235, 236, 237, 238, 239, 240, 241, 242, 243, 244, 245, 246, 247, 248, 249, 250, 251, 252, 253, 254, 255, 256, 257, 258, 259, 260, 261, 262, 263, 264, 265, 266, 267, 268, 269, 270, 271, 272, 273, 274, 275, 276, 277, 278, 279, 280, 281, 282, 283, 284, 285, 286, 287, 288, 289, 290, 291, 292, 293, 294, 295, 296, 297, 298, 299, 300, 301, 302, 303, 304, 305, 306, 307, 308, 309, 310, 311, 312, 313, 314, 315, 316, 317, 318, 319, 320, 321, 322, 323, 324, 325, 326, 327, 328, 329, 330, 331, 332, 333, 334, 335, 336, 337, 338, 339, 340, 341, 342, 343, 344, 345, 346, 347, 348, 349, 350, 351, 352, 353, 354, 355, 356, 357, 358, 359, 360, 361, 362, 363, 364, 365, 366, 367, 368, 369, 370, 371, 372, 373, 374, 375, 376, 377, 378, 379, 380, 381, 382, 383, 384, 385, 386, 387, 388, 389, 390, 391, 392, 393, 394, 395, 396, 397, 398, 399, 400, 401, 402, 403, 404, 405, 406, 407, 408, 409, 410, 411, 412, 413, 414, 415, 416, 417, 418, 419, 420, 421, 422, 423, 424, 425, 426, 427, 428, 429, 430, 431, 432, 433, 434, 435, 436, 437, 438, 439, 440, 441, 442, 443, 444, 445, 446, 447, 448, 449, 450, 451, 452, 453, 454, 455, 456, 457, 458, 459, 460, 461, 462, 463, 464, 465, 466, 467, 468, 469, 470, 471, 472, 473, 474, 475, 476, 477, 478, 479, 480, 481, 482, 483, 484, 485, 486, 487, 488, 489, 490, 491, 492, 493, 494, 495, 496, 497, 498, 499, 500, 501, 502, 503, 504, 505, 506, 507, 508, 509, 510, 511],
      "AcquisitionTime": ["161020.202500", "161021.692500", "161023.182500", "161024.672500", "161026.162500", "161027.652500", "161029.142500", "161030.632500", "161032.122500", "161033.612500", "161035.102500", "161036.592500", "161038.082500", "161039.572500", "161041.062500", "161042.552500", "161044.042500", "161045.532500", "161047.022500", "161048.512500", "161050.002500", "161051.492500", "161052.982500", "161054.472500", "161055.962500", "161057.452500", "161058.942500", "161100.432500", "161101.922500", "161103.412500", "161104.902500", "161106.392500", "161107.882500", "161109.372500", "161110.862500", "161112.352500", "161113.842500", "161115.332500", "161116.822500", "161118.312500", "161119.802500", "161121.292500", "161122.782500", "161124.272500", "161125.762500", "161127.252500", "161128.742500", "161130.232500", "161131.722500", "161133.212500", "161134.702500", "161136.192500", "161137.682500", "161139.172500", "161140.662500", "161142.152500", "161143.642500", "161145.132500", "161146.622500", "161148.112500", "161149.602500", "161151.092500", "161152.582500", "161154.072500", "161155.562500", "161157.052500", "161158.542500", "161200.032500", "161201.522500", "161203.012500", "161204.502500", "161205.992500", "161207.482500", "161208.972500", "161210.462500", "161211.952500", "161213.442500", "161214.932500", "161216.422500", "161217.912500", "161219.402500", "161220.892500", "161222.382500", "161223.872500", "161225.362500", "161226.852500", "161228.342500", "161229.832500", "161231.322500", "161232.812500", "161234.302500", "161235.792500", "161237.282500", "161238.772500", "161240.262500", "161241.752500", "161243.242500", "161244.732500", "161246.222500", "161247.712500", "161249.202500", "161250.692500", "161252.182500", "161253.672500", "161255.162500", "161256.652500", "161258.142500", "161259.632500", "161301.122500", "161302.612500", "161304.102500", "161305.592500", "161307.082500", "161308.572500", "161310.062500", "161311.552500", "161313.042500", "161314.532500", "161316.022500", "161317.512500", "161319.002500", "161320.492500", "161321.982500", "161323.472500", "161324.962500", "161326.452500", "161327.942500", "161329.432500", "161330.922500", "161332.412500", "161333.902500", "161335.392500", "161336.882500", "161338.372500", "161339.862500", "161341.352500", "161342.842500", "161344.332500", "161345.822500", "161347.312500", "161348.802500", "161350.292500", "161351.782500", "161353.272500", "161354.762500", "161356.252500", "161357.742500", "161359.232500", "161400.722500", "161402.212500", "161403.702500", "161405.192500", "161406.682500", "161408.172500", "161409.662500", "161411.152500", "161412.642500", "161414.132500", "161415.622500", "161417.112500", "161418.602500", "161420.092500", "161421.582500", "161423.072500", "161424.562500", "161426.052500", "161427.542500", "161429.032500", "161430.522500", "161432.012500", "161433.502500", "161434.992500", "161436.482500", "161437.972500", "161439.462500", "161440.952500", "161442.442500", "161443.932500", "161445.422500", "161446.912500", "161448.402500", "161449.892500", "161451.382500", "161452.872500", "161454.362500", "161455.852500", "161457.342500", "161458.832500", "161500.322500", "161501.812500", "161503.302500", "161504.792500", "161506.282500", "161507.772500", "161509.262500", "161510.752500", "161512.242500", "161513.732500", "161515.222500", "161516.712500", "161518.202500", "161519.692500", "161521.182500", "161522.672500", "161524.162500", "161525.652500", "161527.142500", "161528.632500", "161530.122500", "161531.612500", "161533.102500", "161534.592500", "161536.082500", "161537.572500", "161539.062500", "161540.552500", "161542.042500", "161543.532500", "161545.022500", "161546.512500", "161548.002500", "161549.492500", "161550.982500", "161552.472500", "161553.962500", "161555.452500", "161556.942500", "161558.432500", "161559.922500", "161601.412500", "161602.902500", "161604.392500", "161605.882500", "161607.372500", "161608.862500", "161610.352500", "161611.842500", "161613.332500", "161614.822500", "161616.312500", "161617.802500", "161619.292500", "161620.782500", "161622.272500", "161623.762500", "161625.252500", "161626.742500", "161628.232500", "161629.722500", "161631.212500", "161632.702500", "161634.192500", "161635.682500", "161637.172500", "161638.662500", "161640.152500", "161641.642500", "161643.132500", "161644.622500", "161646.112500", "161647.602500", "161649.092500", "161650.582500", "161652.072500", "161653.562500", "161655.052500", "161656.542500", "161658.032500", "161659.522500", "161701.012500", "161702.502500", "161703.992500", "161705.482500", "161706.972500", "161708.462500", "161709.952500", "161711.442500", "161712.932500", "161714.422500", "161715.912500", "161717.402500", "161718.892500", "161720.382500", "161721.872500", "161723.362500", "161724.852500", "161726.342500", "161727.832500", "161729.322500", "161730.812500", "161732.302500", "161733.792500", "161735.282500", "161736.772500", "161738.262500", "161739.752500", "161741.242500", "161742.732500", "161744.222500", "161745.712500", "161747.202500", "161748.692500", "161750.182500", "161751.672500", "161753.162500", "161754.652500", "161756.142500", "161757.632500", "161759.122500", "161800.612500", "161802.102500", "161803.592500", "161805.082500", "161806.572500", "161808.062500", "161809.552500", "161811.042500", "161812.532500", "161814.022500", "161815.512500", "161817.002500", "161818.492500", "161819.982500", "161821.472500", "161822.962500", "161824.452500", "161825.942500", "161827.432500", "161828.922500", "161830.412500", "161831.902500", "161833.392500", "161834.882500", "161836.372500", "161837.862500", "161839.352500", "161840.842500", "161842.332500", "161843.822500", "161845.312500", "161846.802500", "161848.292500", "161849.782500", "161851.272500", "161852.762500", "161854.252500", "161855.742500", "161857.232500", "161858.722500", "161900.212500", "161901.702500", "161903.192500", "161904.682500", "161906.172500", "161907.662500", "161909.152500", "161910.642500", "161912.132500", "161913.622500", "161915.112500", "161916.602500", "161918.092500", "161919.582500", "161921.072500", "161922.562500", "161924.052500", "161925.542500", "161927.032500", "161928.522500", "161930.012500", "161931.502500", "161932.992500", "161934.482500", "161935.972500", "161937.462500", "161938.952500", "161940.442500", "161941.932500", "161943.422500", "161944.912500", "161946.402500", "161947.892500", "161949.382500", "161950.872500", "161952.362500", "161953.852500", "161955.342500", "161956.832500", "161958.322500", "161959.812500", "162001.302500", "162002.792500", "162004.282500", "162005.772500", "162007.262500", "162008.752500", "162010.242500", "162011.732500", "162013.222500", "162014.712500", "162016.202500", "162017.692500", "162019.182500", "162020.672500", "162022.162500", "162023.652500", "162025.142500", "162026.632500", "162028.122500", "162029.612500", "162031.102500", "162032.592500", "162034.082500", "162035.572500", "162037.062500", "162038.552500", "162040.042500", "162041.532500", "162043.022500", "162044.512500", "162046.002500", "162047.492500", "162048.982500", "162050.472500", "162051.962500", "162053.452500", "162054.942500", "162056.432500", "162057.922500", "162059.412500", "162100.902500", "162102.392500", "162103.882500", "162105.372500", "162106.862500", "162108.352500", "162109.842500", "162111.332500", "162112.822500", "162114.312500", "162115.802500", "162117.292500", "162118.782500", "162120.272500", "162121.762500", "162123.252500", "162124.742500", "162126.232500", "162127.722500", "162129.212500", "162130.702500", "162132.192500", "162133.682500", "162135.172500", "162136.662500", "162138.152500", "162139.642500", "162141.132500", "162142.622500", "162144.112500", "162145.602500", "162147.092500", "162148.582500", "162150.072500", "162151.562500", "162153.052500", "162154.542500", "162156.032500", "162157.522500", "162159.012500", "162200.502500", "162201.992500", "162203.482500", "162204.972500", "162206.462500", "162207.952500", "162209.442500", "162210.932500", "162212.422500", "162213.912500", "162215.402500", "162216.892500", "162218.382500", "162219.872500", "162221.362500", "162222.852500", "162224.342500", "162225.832500", "162227.322500", "162228.812500", "162230.302500", "162231.792500", "162233.282500", "162234.772500", "162236.262500", "162237.752500", "162239.242500", "162240.732500", "162242.222500", "162243.712500", "162245.202500", "162246.692500", "162248.182500", "162249.672500", "162251.162500", "162252.652500", "162254.142500", "162255.632500", "162257.122500", "162258.612500", "162300.102500"],
      "ContentTime": ["161112.480000", "161112.493000", "161112.496000", "161132.451000", "161132.454000", "161132.456000", "161132.459000", "161132.462000", "161132.465000", "161132.468000", "161132.471000", "161132.474000", "161132.565000", "161132.568000", "161132.570000", "161132.573000", "161132.583000", "161132.586000", "161132.589000", "161132.591000", "161132.594000", "161132.597000", "161132.600000", "161132.603000", "161152.450000", "161152.453000", "161152.456000", "161152.458000", "161152.461000", "161152.464000", "161152.467000", "161152.469000", "161152.472000", "161152.475000", "161152.478000", "161152.480000", "161152.483000", "161152.486000", "161152.505000", "161152.508000", "161152.510000", "161152.513000", "161152.516000", "161152.519000", "161212.450000", "161212.453000", "161212.456000", "161212.458000", "161212.461000", "161212.464000", "161212.467000", "161212.470000", "161212.473000", "161212.475000", "161212.478000", "161212.481000", "161212.484000", "161212.487000", "161212.489000", "161212.505000", "161212.508000", "161212.511000", "161212.513000", "161212.516000", "161232.450000", "161232.453000", "161232.456000", "161232.458000", "161232.461000", "161232.464000", "161232.467000", "161232.470000", "161232.472000", "161232.475000", "161232.478000", "161232.481000", "161232.483000", "161232.486000", "161232.489000", "161232.492000", "161232.495000", "161232.497000", "161232.500000", "161232.503000", "161312.450000", "161312.453000", "161312.456000", "161312.458000", "161312.461000", "161312.464000", "161312.467000", "161312.470000", "161312.472000", "161312.475000", "161312.478000", "161312.481000", "161312.484000", "161312.486000", "161312.489000", "161312.492000", "161312.495000", "161312.498000", "161312.501000", "161312.504000", "161312.506000", "161312.509000", "161312.512000", "161312.515000", "161312.518000", "161312.533000", "161312.536000", "161312.539000", "161312.541000", "161312.544000", "161312.547000", "161352.451000", "161352.454000", "161352.457000", "161352.460000", "161352.462000", "161352.465000", "161352.468000", "161352.471000", "161352.474000", "161352.476000", "161352.479000", "161352.482000", "161352.485000", "161352.488000", "161352.490000", "161352.493000", "161352.496000", "161352.499000", "161352.502000", "161352.504000", "161352.507000", "161352.510000", "161352.513000", "161352.516000", "161352.519000", "161352.521000", "161352.524000", "161432.450000", "161432.453000", "161432.456000", "161432.459000", "161432.461000", "161432.464000", "161432.467000", "161432.470000", "161432.473000", "161432.475000", "161432.478000", "161432.481000", "161432.484000", "161432.487000", "161432.490000", "161432.492000", "161432.495000", "161432.498000", "161432.501000", "161432.504000", "161432.507000", "161432.509000", "161432.512000", "161432.515000", "161432.518000", "161432.521000", "161432.524000", "161512.450000", "161512.453000", "161512.456000", "161512.459000", "161512.461000", "161512.464000", "161512.467000", "161512.470000", "161512.473000", "161512.476000", "161512.478000", "161512.481000", "161512.484000", "161512.487000", "161512.490000", "161512.493000", "161512.495000", "161512.498000", "161512.501000", "161512.504000", "161512.507000", "161512.510000", "161512.512000", "161512.515000", "161512.518000", "161512.521000", "161512.524000", "161552.450000", "161552.453000", "161552.456000", "161552.458000", "161552.461000", "161552.464000", "161552.467000", "161552.470000", "161552.472000", "161552.475000", "161552.478000", "161552.481000", "161552.484000", "161552.487000", "161552.489000", "161552.492000", "161552.495000", "161552.498000", "161552.501000", "161552.504000", "161552.507000", "161552.510000", "161552.513000", "161552.516000", "161552.519000", "161552.521000", "161632.450000", "161632.453000", "161632.456000", "161632.459000", "161632.461000", "161632.464000", "161632.467000", "161632.470000", "161632.473000", "161632.475000", "161632.478000", "161632.481000", "161632.503000", "161632.505000", "161632.508000", "161632.511000", "161632.514000", "161632.517000", "161632.520000", "161632.522000", "161632.525000", "161632.528000", "161632.531000", "161632.534000", "161632.537000", "161632.539000", "161632.542000", "161712.450000", "161712.453000", "161712.456000", "161712.458000", "161712.461000", "161712.464000", "161712.467000", "161712.470000", "161712.472000", "161712.475000", "161712.478000", "161712.481000", "161712.484000", "161712.487000", "161712.489000", "161712.492000", "161712.495000", "161712.498000", "161712.501000", "161712.503000", "161712.506000", "161712.509000", "161712.512000", "161712.515000", "161712.518000", "161712.521000", "161712.523000", "161752.450000", "161752.453000", "161752.456000", "161752.459000", "161752.461000", "161752.464000", "161752.467000", "161752.470000", "161752.473000", "161752.476000", "161752.478000", "161752.481000", "161752.484000", "161752.487000", "161752.490000", "161752.492000", "161752.495000", "161752.498000", "161752.501000", "161752.504000", "161752.507000", "161752.509000", "161752.512000", "161752.515000", "161752.518000", "161752.521000", "161752.524000", "161832.451000", "161832.454000", "161832.457000", "161832.459000", "161832.462000", "161832.465000", "161832.468000", "161832.471000", "161832.474000", "161832.476000", "161832.479000", "161832.482000", "161832.485000", "161832.488000", "161832.491000", "161832.493000", "161832.496000", "161832.499000", "161832.502000", "161832.514000", "161832.517000", "161832.520000", "161832.522000", "161832.525000", "161832.528000", "161832.531000", "161832.534000", "161912.450000", "161912.453000", "161912.456000", "161912.458000", "161912.461000", "161912.464000", "161912.467000", "161912.470000", "161912.473000", "161912.475000", "161912.478000", "161912.481000", "161912.484000", "161912.487000", "161912.490000", "161912.492000", "161912.495000", "161912.498000", "161912.501000", "161912.504000", "161912.506000", "161912.509000", "161912.512000", "161912.515000", "161912.518000", "161912.521000", "161912.523000", "161952.450000", "161952.453000", "161952.456000", "161952.459000", "161952.461000", "161952.464000", "161952.467000", "161952.470000", "161952.473000", "161952.476000", "161952.478000", "161952.481000", "161952.484000", "161952.487000", "161952.490000", "161952.493000", "161952.495000", "161952.498000", "161952.501000", "161952.504000", "161952.507000", "161952.509000", "161952.512000", "161952.515000", "161952.518000", "161952.521000", "162032.450000", "162032.453000", "162032.456000", "162032.459000", "162032.461000", "162032.464000", "162032.467000", "162032.470000", "162032.473000", "162032.476000", "162032.478000", "162032.481000", "162032.484000", "162032.487000", "162032.490000", "162032.498000", "162032.501000", "162032.504000", "162032.507000", "162032.510000", "162032.512000", "162032.515000", "162032.518000", "162032.521000", "162032.524000", "162032.527000", "162032.529000", "162112.450000", "162112.453000", "162112.456000", "162112.459000", "162112.461000", "162112.464000", "162112.467000", "162112.470000", "162112.487000", "162112.490000", "162112.492000", "162112.495000", "162112.498000", "162112.501000", "162112.504000", "162112.506000", "162112.509000", "162112.512000", "162112.515000", "162112.518000", "162112.520000", "162112.523000", "162112.526000", "162112.529000", "162112.532000", "162112.535000", "162112.538000", "162152.450000", "162152.453000", "162152.456000", "162152.459000", "162152.461000", "162152.464000", "162152.467000", "162152.470000", "162152.473000", "162152.476000", "162152.478000", "162152.481000", "162152.484000", "162152.487000", "162152.490000", "162152.492000", "162152.495000", "162152.498000", "162152.501000", "162152.504000", "162152.507000", "162152.509000", "162152.512000", "162152.515000", "162152.518000", "162152.521000", "162152.523000", "162232.450000", "162232.453000", "162232.456000", "162232.458000", "162232.461000", "162232.464000", "162232.467000", "162232.470000", "162232.473000", "162232.476000", "162232.478000", "162232.481000", "162232.484000", "162232.487000", "162232.490000", "162232.493000", "162232.495000", "162232.498000", "162232.501000", "162232.504000", "162232.507000", "162232.510000", "162232.512000", "162232.515000", "162232.518000", "162232.521000", "162232.524000", "162301.802000", "162301.806000", "162301.809000", "162301.812000", "162301.815000", "162301.818000", "162301.821000", "162301.824000", "162301.827000", "162301.830000", "162301.833000", "162301.836000", "162301.839000", "162301.842000", "162301.845000", "162301.848000", "162301.851000", "162301.854000", "162301.857000", "162301.860000"],
