{
  "AcquisitionMatrixPE": 104,
  "AcquisitionNumber": 1,
  "AcquisitionTime": "15:56:29.800000",
  "BandwidthPerPixelPhaseEncode": 17.17,
  "BaseResolution": 104,
  "BodyPartExamined": "BRAIN",
  "CoilCombinationMethod": "Sum of Squares",
  "ConsistencyInfo": "N4_VE11C_LATEST_20160120",
  "ConversionSoftware": "dcm2niix",
  "ConversionSoftwareVersion": "v1.0.20230411",
  "DerivedVendorReportedEchoSpacing": 0.000560011,
  "DeviceSerialNumber": "167006",
  "DwellTime": 2.1e-06,
  "EchoTime": 0.037,
  "EchoTrainLength": 104,
  "EffectiveEchoSpacing": 0.000560011,
  "FlipAngle": 52,
  "HeudiconvVersion": "0.5.3.post861+ge7d3c7f",
  "ImageComments": "Unaliased MB4/PE3/LB",
  "ImageOrientationPatientDICOM": [0.999063, -0.0431871, -0.00295871, 0.0394279, 0.936054, -0.349641],
  "ImageOrientationText": "Tra>Cor(-20.4)>Sag(-1.0)",
  "ImageType": [
    "ORIGINAL",
    "PRIMARY",
    "M",
    "MB",
    "ND",
    "MOSAIC"
],
  "ImagingFrequency": 123.249727,
  "InPlanePhaseEncodingDirectionDICOM": "COL",
  "InstitutionAddress": "Chemin Queen-Mary 4565,Montreal,District,CA,H3W 1W5",
  "InstitutionName": "IUGM",
  "InstitutionalDepartmentName": "Department",
  "MRAcquisitionType": "2D",
  "MagneticFieldStrength": 3,
  "Manufacturer": "Siemens",
  "ManufacturersModelName": "Prisma_fit",
  "MatrixCoilMode": "SENSE",
  "Modality": "MR",
  "MultibandAccelerationFactor": 4,
  "NonlinearGradientCorrection": false,
  "PartialFourier": 1,
  "PatientPosition": "HFS",
  "PercentPhaseFOV": 100,
  "PercentSampling": 100,
  "PhaseEncodingDirection": "j",
  "PhaseEncodingSteps": 104,
  "PhaseResolution": 1,
  "PixelBandwidth": 2290,
  "ProcedureStepDescription": "video^friends",
  "ProtocolName": "func_task-friends-s07e18a",
  "PulseSequenceDetails": "%CustomerSeq%\\cmrr_mbep2d_bold",
  "ReceiveCoilActiveElements": "HC1-7;NC1,2",
  "ReceiveCoilName": "HeadNeck_64",
  "ReconMatrixPE": 104,
  "RepetitionTime": 1.49,
  "SAR": 0.0702844,
  "ScanOptions": "FS",
  "ScanningSequence": "EP",
  "SequenceName": "epfid2d1_104",
  "SequenceVariant": "SK\\SS",
  "SeriesDescription": "func_task-friends-s07e18a",
  "SeriesNumber": 14,
  "ShimSetting": [591, -7289, -8833, 485, 10, -276, -122, 38],
  "SliceThickness": 2,
  "SliceTiming": [0, 0.785, 0.0975, 0.8825, 0.195, 0.98, 0.295, 1.0775, 0.3925, 1.175, 0.49, 1.275, 0.5875, 1.3725, 0.685, 0, 0.785, 0.0975, 0.8825, 0.195, 0.98, 0.295, 1.0775, 0.3925, 1.175, 0.49, 1.275, 0.5875, 1.3725, 0.685, 0, 0.785, 0.0975, 0.8825, 0.195, 0.98, 0.295, 1.0775, 0.3925, 1.175, 0.49, 1.275, 0.5875, 1.3725, 0.685, 0, 0.785, 0.0975, 0.8825, 0.195, 0.98, 0.295, 1.0775, 0.3925, 1.175, 0.49, 1.275, 0.5875, 1.3725, 0.685],
  "SoftwareVersions": "syngo MR E11",
  "SpacingBetweenSlices": 2,
  "StationName": "MRC35049",
  "TaskName": "s07e18a",
  "TotalReadoutTime": 0.0576811,
  "TxRefAmp": 268.769,
  "WipMemBlock": "e8aa9256-9aa1-4346-8849-0deae0850941||Sequence: R017 ve11c/master r/75a17815+; Jun 28 2022 16:32:11 by eja",
  "dcmmeta_affine": [
    [-1.9981251955032349, 0.07885583490133286, -0.0357389971613884, 99.9254150390625],
    [0.0863742008805275, 1.8721073865890503, -0.6983935832977295, -76.84410095214844],
    [-0.005917415488511324, 0.6992823481559753, 1.87375807762146, -69.54048919677734],
    [0.0, 0.0, 0.0, 1.0]
],
  "dcmmeta_reorient_transform": [
    [0.0, -1.0, 0.0, 103.0],
    [1.0, 0.0, 0.0, 0.0],
    [0.0, 0.0, 1.0, 0.0],
    [0.0, 0.0, 0.0, 1.0]
],
  "dcmmeta_shape": [104, 104, 60, 477],
  "dcmmeta_slice_dim": 2,
  "dcmmeta_version": 0.6,
  "global": {
    "const": {
      "AcquisitionMatrix": [104, 0, 0, 104],
      "AngioFlag": "N",
      "BitsAllocated": 16,
      "BitsStored": 16,
      "BodyPartExamined": "BRAIN",
      "Columns": 832,
      "EchoNumbers": 1,
      "EchoTime": 37.0,
      "EchoTrainLength": 104,
      "FlipAngle": 52.0,
      "HighBit": 15,
      "ImageOrientationPatient": [0.99906262088175, -0.0431870999864, -0.0029587077698, 0.03942791649216, 0.93605367532905, -0.3496411822198],
      "ImagePositionPatient": [-864.06867550602, -765.98982474579, 259.17831690639],
      "ImageType": [
        "ORIGINAL",
        "PRIMARY",
        "M",
        "MB",
        "ND",
        "MOSAIC"
],
      "ImagedNucleus": "1H",
      "ImagingFrequency": 123.249727,
      "InPlanePhaseEncodingDirection": "COL",
      "MRAcquisitionType": "2D",
      "MagneticFieldStrength": 3.0,
      "Manufacturer": "SIEMENS",
      "ManufacturerModelName": "Prisma_fit",
      "Modality": "MR",
      "NumberOfAverages": 1.0,
      "NumberOfPhaseEncodingSteps": 104,
      "PercentPhaseFieldOfView": 100.0,
      "PercentSampling": 100.0,
      "PerformedProcedureStepStartTime": "153543.121000",
      "PhotometricInterpretation": "MONOCHROME2",
      "PixelBandwidth": 2290.0,
      "PixelRepresentation": 0,
      "PixelSpacing": [2.0, 2.0],
      "ProtocolName": "func_task-friends-s07e18a",
      "RepetitionTime": 1490.0,
      "Rows": 832,
      "SAR": 0.07028435673542,
      "SamplesPerPixel": 1,
      "ScanOptions": "FS",
      "ScanningSequence": "EP",
      "SequenceName": "epfid2d1_104",
      "SequenceVariant": [
        "SK",
        "SS"
],
      "SeriesDescription": "func_task-friends-s07e18a",
      "SeriesNumber": 14,
      "SeriesTime": "155756.567000",
      "SliceLocation": -40.102927521771,
      "SliceThickness": 2.0,
      "SmallestImagePixelValue": 0,
      "SoftwareVersions": "syngo MR E11",
      "SpacingBetweenSlices": 2.0000000499134,
      "SpecificCharacterSet": "ISO_IR 100",
      "StudyID": "1",
      "StudyTime": "153543.032000",
      "TransmitCoilName": "Body",
      "VariableFlipAngleFlag": "N",
      "WindowCenterWidthExplanation": "Algo1",
      "dBdt": 0.0},
    "slices": {}
  },
  "time": {
    "samples": {
      "AcquisitionNumber": [1, 2, 3, 4, 5, 6, 7, 8, 9, 10, 11, 12, 13, 14, 15, 16, 17, 18, 19, 20, 21, 22, 23, 24, 25, 26, 27, 28, 29, 30, 31, 32, 33, 34, 35, 36, 37, 38, 39, 40, 41, 42, 43, 44, 45, 46, 47, 48, 49, 50, 51, 52, 53, 54, 55, 56, 57, 58, 59, 60, 61, 62, 63, 64, 65, 66, 67, 68, 69, 70, 71, 72, 73, 74, 75, 76, 77, 78, 79, 80, 81, 82, 83, 84, 85, 86, 87, 88, 89, 90, 91, 92, 93, 94, 95, 96, 97, 98, 99, 100, 101, 102, 103, 104, 105, 106, 107, 108, 109, 110, 111, 112, 113, 114, 115, 116, 117, 118, 119, 120, 121, 122, 123, 124, 125, 126, 127, 128, 129, 130, 131, 132, 133, 134, 135, 136, 137, 138, 139, 140, 141, 142, 143, 144, 145, 146, 147, 148, 149, 150, 151, 152, 153, 154, 155, 156, 157, 158, 159, 160, 161, 162, 163, 164, 165, 166, 167, 168, 169, 170, 171, 172, 173, 174, 175, 176, 177, 178, 179, 180, 181, 182, 183, 184, 185, 186, 187, 188, 189, 190, 191, 192, 193, 194, 195, 196, 197, 198, 199, 200, 201, 202, 203, 204, 205, 206, 207, 208, 209, 210, 211, 212, 213, 214, 215, 216, 217, 218, 219, 220, 221, 222, 223, 224, 225, 226, 227, 228, 229, 230, 231, 232, 233, 234, 235, 236, 237, 238, 239, 240, 241, 242, 243, 244, 245, 246, 247, 248, 249, 250, 251, 252, 253, 254, 255, 256, 257, 258, 259, 260, 261, 262, 263, 264, 265, 266, 267, 268, 269, 270, 271, 272, 273, 274, 275, 276, 277, 278, 279, 280, 281, 282, 283, 284, 285, 286, 287, 288, 289, 290, 291, 292, 293, 294, 295, 296, 297, 298, 299, 300, 301, 302, 303, 304, 305, 306, 307, 308, 309, 310, 311, 312, 313, 314, 315, 316, 317, 318, 319, 320, 321, 322, 323, 324, 325, 326, 327, 328, 329, 330, 331, 332, 333, 334, 335, 336, 337, 338, 339, 340, 341, 342, 343, 344, 345, 346, 347, 348, 349, 350, 351, 352, 353, 354, 355, 356, 357, 358, 359, 360, 361, 362, 363, 364, 365, 366, 367, 368, 369, 370, 371, 372, 373, 374, 375, 376, 377, 378, 379, 380, 381, 382, 383, 384, 385, 386, 387, 388, 389, 390, 391, 392, 393, 394, 395, 396, 397, 398, 399, 400, 401, 402, 403, 404, 405, 406, 407, 408, 409, 410, 411, 412, 413, 414, 415, 416, 417, 418, 419, 420, 421, 422, 423, 424, 425, 426, 427, 428, 429, 430, 431, 432, 433, 434, 435, 436, 437, 438, 439, 440, 441, 442, 443, 444, 445, 446, 447, 448, 449, 450, 451, 452, 453, 454, 455, 456, 457, 458, 459, 460, 461, 462, 463, 464, 465, 466, 467, 468, 469, 470, 471, 472, 473, 474, 475, 476, 477],
      "AcquisitionTime": ["155629.800000", "155631.290000", "155632.780000", "155634.270000", "155635.760000", "155637.250000", "155638.740000", "155640.230000", "155641.720000", "155643.210000", "155644.700000", "155646.190000", "155647.680000", "155649.170000", "155650.660000", "155652.150000", "155653.640000", "155655.130000", "155656.620000", "155658.110000", "155659.600000", "155701.090000", "155702.580000", "155704.070000", "155705.560000", "155707.050000", "155708.540000", "155710.030000", "155711.520000", "155713.010000", "155714.500000", "155715.990000", "155717.480000", "155718.970000", "155720.460000", "155721.950000", "155723.440000", "155724.930000", "155726.420000", "155727.910000", "155729.400000", "155730.890000", "155732.380000", "155733.870000", "155735.360000", "155736.850000", "155738.340000", "155739.830000", "155741.320000", "155742.810000", "155744.300000", "155745.790000", "155747.280000", "155748.770000", "155750.260000", "155751.750000", "155753.240000", "155754.730000", "155756.220000", "155757.710000", "155759.200000", "155800.690000", "155802.180000", "155803.670000", "155805.160000", "155806.650000", "155808.140000", "155809.630000", "155811.120000", "155812.610000", "155814.100000", "155815.590000", "155817.080000", "155818.570000", "155820.060000", "155821.550000", "155823.040000", "155824.530000", "155826.020000", "155827.510000", "155829.000000", "155830.490000", "155831.980000", "155833.470000", "155834.960000", "155836.450000", "155837.940000", "155839.430000", "155840.920000", "155842.410000", "155843.900000", "155845.390000", "155846.880000", "155848.370000", "155849.860000", "155851.350000", "155852.840000", "155854.330000", "155855.820000", "155857.310000", "155858.800000", "155900.290000", "155901.780000", "155903.270000", "155904.760000", "155906.250000", "155907.740000", "155909.230000", "155910.720000", "155912.210000", "155913.700000", "155915.190000", "155916.680000", "155918.170000", "155919.660000", "155921.150000", "155922.640000", "155924.130000", "155925.620000", "155927.110000", "155928.600000", "155930.090000", "155931.580000", "155933.070000", "155934.560000", "155936.050000", "155937.540000", "155939.030000", "155940.520000", "155942.010000", "155943.500000", "155944.990000", "155946.480000", "155947.970000", "155949.460000", "155950.950000", "155952.440000", "155953.930000", "155955.420000", "155956.910000", "155958.400000", "155959.890000", "160001.380000", "160002.870000", "160004.360000", "160005.850000", "160007.340000", "160008.830000", "160010.320000", "160011.810000", "160013.300000", "160014.790000", "160016.280000", "160017.770000", "160019.260000", "160020.750000", "160022.240000", "160023.730000", "160025.220000", "160026.710000", "160028.200000", "160029.690000", "160031.180000", "160032.670000", "160034.160000", "160035.650000", "160037.140000", "160038.630000", "160040.120000", "160041.610000", "160043.100000", "160044.590000", "160046.080000", "160047.570000", "160049.060000", "160050.550000", "160052.040000", "160053.530000", "160055.020000", "160056.510000", "160058.000000", "160059.490000", "160100.980000", "160102.470000", "160103.960000", "160105.450000", "160106.940000", "160108.430000", "160109.920000", "160111.410000", "160112.900000", "160114.390000", "160115.880000", "160117.370000", "160118.860000", "160120.350000", "160121.840000", "160123.330000", "160124.820000", "160126.310000", "160127.800000", "160129.290000", "160130.780000", "160132.270000", "160133.760000", "160135.250000", "160136.740000", "160138.230000", "160139.720000", "160141.210000", "160142.700000", "160144.190000", "160145.680000", "160147.170000", "160148.660000", "160150.150000", "160151.640000", "160153.130000", "160154.620000", "160156.110000", "160157.600000", "160159.090000", "160200.580000", "160202.070000", "160203.560000", "160205.050000", "160206.540000", "160208.030000", "160209.520000", "160211.010000", "160212.500000", "160213.990000", "160215.480000", "160216.970000", "160218.460000", "160219.950000", "160221.440000", "160222.930000", "160224.420000", "160225.910000", "160227.400000", "160228.890000", "160230.380000", "160231.870000", "160233.360000", "160234.850000", "160236.340000", "160237.830000", "160239.320000", "160240.810000", "160242.300000", "160243.790000", "160245.280000", "160246.770000", "160248.260000", "160249.750000", "160251.240000", "160252.730000", "160254.220000", "160255.710000", "160257.200000", "160258.690000", "160300.180000", "160301.670000", "160303.160000", "160304.650000", "160306.140000", "160307.630000", "160309.120000", "160310.610000", "160312.100000", "160313.590000", "160315.080000", "160316.570000", "160318.060000", "160319.550000", "160321.040000", "160322.530000", "160324.020000", "160325.510000", "160327.000000", "160328.490000", "160329.980000", "160331.470000", "160332.960000", "160334.450000", "160335.940000", "160337.430000", "160338.920000", "160340.410000", "160341.900000", "160343.390000", "160344.880000", "160346.370000", "160347.860000", "160349.350000", "160350.840000", "160352.330000", "160353.820000", "160355.310000", "160356.800000", "160358.290000", "160359.780000", "160401.270000", "160402.760000", "160404.250000", "160405.740000", "160407.230000", "160408.720000", "160410.210000", "160411.700000", "160413.190000", "160414.680000", "160416.170000", "160417.660000", "160419.150000", "160420.640000", "160422.130000", "160423.620000", "160425.110000", "160426.600000", "160428.090000", "160429.580000", "160431.070000", "160432.560000", "160434.050000", "160435.540000", "160437.030000", "160438.520000", "160440.010000", "160441.500000", "160442.990000", "160444.480000", "160445.970000", "160447.460000", "160448.950000", "160450.440000", "160451.930000", "160453.420000", "160454.910000", "160456.400000", "160457.890000", "160459.380000", "160500.870000", "160502.360000", "160503.850000", "160505.340000", "160506.830000", "160508.320000", "160509.810000", "160511.300000", "160512.790000", "160514.280000", "160515.770000", "160517.260000", "160518.750000", "160520.240000", "160521.730000", "160523.220000", "160524.710000", "160526.200000", "160527.690000", "160529.180000", "160530.670000", "160532.160000", "160533.650000", "160535.140000", "160536.630000", "160538.120000", "160539.610000", "160541.100000", "160542.590000", "160544.080000", "160545.570000", "160547.060000", "160548.550000", "160550.040000", "160551.530000", "160553.020000", "160554.510000", "160556.000000", "160557.490000", "160558.980000", "160600.470000", "160601.960000", "160603.450000", "160604.940000", "160606.430000", "160607.920000", "160609.410000", "160610.900000", "160612.390000", "160613.880000", "160615.370000", "160616.860000", "160618.350000", "160619.840000", "160621.330000", "160622.820000", "160624.310000", "160625.800000", "160627.290000", "160628.780000", "160630.270000", "160631.760000", "160633.250000", "160634.740000", "160636.230000", "160637.720000", "160639.210000", "160640.700000", "160642.190000", "160643.680000", "160645.170000", "160646.660000", "160648.150000", "160649.640000", "160651.130000", "160652.620000", "160654.110000", "160655.600000", "160657.090000", "160658.580000", "160700.070000", "160701.560000", "160703.050000", "160704.540000", "160706.030000", "160707.520000", "160709.010000", "160710.500000", "160711.990000", "160713.480000", "160714.970000", "160716.460000", "160717.950000", "160719.440000", "160720.930000", "160722.420000", "160723.910000", "160725.400000", "160726.890000", "160728.380000", "160729.870000", "160731.360000", "160732.850000", "160734.340000", "160735.830000", "160737.320000", "160738.810000", "160740.300000", "160741.790000", "160743.280000", "160744.770000", "160746.260000", "160747.750000", "160749.240000", "160750.730000", "160752.220000", "160753.710000", "160755.200000", "160756.690000", "160758.180000", "160759.670000", "160801.160000", "160802.650000", "160804.140000", "160805.630000", "160807.120000", "160808.610000", "160810.100000", "160811.590000", "160813.080000", "160814.570000", "160816.060000", "160817.550000", "160819.040000"],
      "ContentTime": ["155756.570000", "155756.574000", "155756.576000", "155756.579000", "155756.582000", "155756.591000", "155756.594000", "155756.597000", "155756.599000", "155756.602000", "155756.605000", "155756.608000", "155756.610000", "155756.613000", "155756.616000", "155756.619000", "155756.622000", "155756.625000", "155756.627000", "155756.630000", "155756.633000", "155756.636000", "155756.638000", "155756.641000", "155756.644000", "155756.647000", "155756.650000", "155756.652000", "155756.655000", "155756.658000", "155756.661000", "155756.664000", "155756.666000", "155756.669000", "155756.672000", "155756.675000", "155816.540000", "155816.543000", "155816.546000", "155816.548000", "155816.551000", "155816.554000", "155816.557000", "155816.560000", "155816.562000", "155816.565000", "155816.568000", "155816.571000", "155816.574000", "155816.576000", "155816.579000", "155816.582000", "155816.585000", "155816.588000", "155816.590000", "155816.593000", "155836.539000", "155836.542000", "155836.545000", "155836.548000", "155836.551000", "155836.554000", "155836.557000", "155836.559000", "155836.562000", "155836.565000", "155836.568000", "155836.571000", "155836.574000", "155836.576000", "155836.579000", "155836.582000", "155836.585000", "155836.587000", "155836.590000", "155836.593000", "155856.539000", "155856.542000", "155856.545000", "155856.548000", "155856.551000", "155856.554000", "155856.557000", "155856.560000", "155856.563000", "155856.566000", "155856.569000", "155856.572000", "155856.575000", "155856.578000", "155856.581000", "155856.583000", "155856.586000", "155856.589000", "155856.592000", "155856.595000", "155936.540000", "155936.543000", "155936.546000", "155936.548000", "155936.551000", "155936.554000", "155936.557000", "155936.560000", "155936.562000", "155936.565000", "155936.568000", "155936.571000", "155936.574000", "155936.578000", "155936.580000", "155936.583000", "155936.586000", "155936.589000", "155936.592000", "155936.594000", "155936.597000", "155936.600000", "155936.603000", "155936.606000", "155936.608000", "155936.611000", "155936.614000", "155936.617000", "160016.540000", "160016.543000", "160016.546000", "160016.548000", "160016.551000", "160016.554000", "160016.557000", "160016.560000", "160016.562000", "160016.565000", "160016.568000", "160016.571000", "160016.574000", "160016.577000", "160016.579000", "160016.582000", "160016.585000", "160016.588000", "160016.591000", "160016.593000", "160016.596000", "160016.599000", "160016.602000", "160016.605000", "160016.607000", "160016.610000", "160016.613000", "160056.539000", "160056.542000", "160056.545000", "160056.547000", "160056.550000", "160056.553000", "160056.556000", "160056.559000", "160056.561000", "160056.574000", "160056.577000", "160056.580000", "160056.582000", "160056.585000", "160056.588000", "160056.591000", "160056.593000", "160056.596000", "160056.599000", "160056.602000", "160056.605000", "160056.608000", "160056.611000", "160056.614000", "160056.616000", "160056.619000", "160056.622000", "160116.539000", "160116.543000", "160116.546000", "160116.548000", "160116.551000", "160116.554000", "160116.557000", "160116.560000", "160116.563000", "160116.566000", "160116.568000", "160116.571000", "160116.574000", "160156.540000", "160156.543000", "160156.546000", "160156.548000", "160156.551000", "160156.554000", "160156.557000", "160156.560000", "160156.563000", "160156.565000", "160156.568000", "160156.571000", "160156.574000", "160156.577000", "160156.580000", "160156.582000", "160156.585000", "160156.588000", "160156.591000", "160156.594000", "160156.596000", "160156.599000", "160156.602000", "160156.605000", "160156.608000", "160156.611000", "160156.613000", "160236.540000", "160236.543000", "160236.546000", "160236.549000", "160236.551000", "160236.554000", "160236.557000", "160236.560000", "160236.563000", "160236.565000", "160236.568000", "160236.571000", "160236.574000", "160236.577000", "160236.580000", "160236.582000", "160236.585000", "160236.588000", "160236.591000", "160236.594000", "160236.596000", "160236.599000", "160236.602000", "160236.605000", "160236.608000", "160236.611000", "160236.613000", "160316.539000", "160316.542000", "160316.545000", "160316.548000", "160316.550000", "160316.553000", "160316.556000", "160316.559000", "160316.562000", "160316.564000", "160316.567000", "160316.570000", "160316.573000", "160316.576000", "160316.579000", "160316.581000", "160316.584000", "160316.587000", "160316.590000", "160316.593000", "160316.595000", "160316.598000", "160316.601000", "160316.604000", "160316.607000", "160316.609000", "160316.612000", "160356.539000", "160356.542000", "160356.545000", "160356.547000", "160356.550000", "160356.553000", "160356.556000", "160356.559000", "160356.562000", "160356.564000", "160356.567000", "160356.570000", "160356.573000", "160356.576000", "160356.579000", "160356.581000", "160356.584000", "160356.587000", "160356.590000", "160356.593000", "160356.595000", "160356.598000", "160356.601000", "160356.604000", "160356.607000", "160356.610000", "160356.612000", "160436.540000", "160436.543000", "160436.546000", "160436.548000", "160436.551000", "160436.554000", "160436.557000", "160436.560000", "160436.563000", "160436.565000", "160436.568000", "160436.571000", "160436.574000", "160436.577000", "160436.580000", "160436.582000", "160436.585000", "160436.588000", "160436.591000", "160436.594000", "160436.597000", "160436.599000", "160436.602000", "160436.605000", "160436.608000", "160436.611000", "160436.613000", "160516.540000", "160516.543000", "160516.546000", "160516.549000", "160516.551000", "160516.554000", "160516.557000", "160516.560000", "160516.563000", "160516.565000", "160516.568000", "160516.571000", "160516.574000", "160516.577000", "160516.580000", "160516.582000", "160516.585000", "160516.588000", "160516.591000", "160516.593000", "160516.596000", "160516.599000", "160516.602000", "160516.605000", "160516.608000", "160516.611000", "160516.613000", "160556.539000", "160556.542000", "160556.545000", "160556.548000", "160556.550000", "160556.553000", "160556.556000", "160556.559000", "160556.575000", "160556.578000", "160556.581000", "160556.583000", "160556.586000", "160556.589000", "160556.592000", "160556.595000", "160556.598000", "160556.600000", "160556.603000", "160556.606000", "160556.609000", "160556.612000", "160556.615000", "160556.617000", "160556.620000", "160556.623000", "160636.540000", "160636.543000", "160636.546000", "160636.549000", "160636.552000", "160636.554000", "160636.557000", "160636.560000", "160636.563000", "160636.566000", "160636.568000", "160636.571000", "160636.574000", "160636.577000", "160636.580000", "160636.583000", "160636.585000", "160636.588000", "160636.591000", "160636.594000", "160636.597000", "160636.599000", "160636.602000", "160636.605000", "160636.608000", "160636.611000", "160636.613000", "160716.540000", "160716.543000", "160716.546000", "160716.549000", "160716.552000", "160716.554000", "160716.557000", "160716.560000", "160716.563000", "160716.566000", "160716.569000", "160716.572000", "160716.574000", "160716.577000", "160716.580000", "160716.583000", "160716.586000", "160716.589000", "160716.591000", "160716.594000", "160716.597000", "160716.600000", "160716.603000", "160716.605000", "160716.608000", "160716.611000", "160716.614000", "160756.539000", "160756.542000", "160756.545000", "160756.548000", "160756.550000", "160756.553000", "160756.556000", "160756.559000", "160756.562000", "160756.565000", "160756.567000", "160756.570000", "160756.573000", "160756.576000", "160756.579000", "160756.582000", "160756.585000", "160756.587000", "160756.590000", "160756.593000", "160756.596000", "160756.599000", "160756.602000", "160756.604000", "160756.607000", "160756.610000", "160756.613000", "160821.232000", "160821.235000", "160821.238000", "160821.240000", "160821.243000", "160821.246000", "160821.249000", "160821.252000", "160821.255000", "160821.258000", "160821.261000", "160821.264000", "160821.266000", "160821.269000", "160821.272000", "160821.275000", "160821.278000"],
