{
  "AcquisitionMatrixPE": 104,
  "AcquisitionNumber": 1,
  "AcquisitionTime": "16:09:42.800000",
  "BandwidthPerPixelPhaseEncode": 17.17,
  "BaseResolution": 104,
  "BodyPartExamined": "BRAIN",
  "CoilCombinationMethod": "Sum of Squares",
  "ConsistencyInfo": "N4_VE11C_LATEST_20160120",
  "ConversionSoftware": "dcm2niix",
  "ConversionSoftwareVersion": "v1.0.20211006",
  "DerivedVendorReportedEchoSpacing": 0.000560011,
  "DeviceSerialNumber": "167006",
  "DwellTime": 2.1e-06,
  "EchoTime": 0.037,
  "EchoTrainLength": 104,
  "EffectiveEchoSpacing": 0.000560011,
  "FlipAngle": 52,
  "HeudiconvVersion": "0.11.3.post9+gc939bf8",
  "ImageComments": "Unaliased MB4/PE3/LB",
  "ImageOrientationPatientDICOM": [0.998199, -0.057987, -0.0153881, 0.0496933, 0.942859, -0.329465],
  "ImageOrientationText": "Tra>Cor(-19.2)>Sag(-1.9)",
  "ImageType": [
    "ORIGINAL",
    "PRIMARY",
    "M",
    "MB",
    "ND",
    "MOSAIC"
],
  "ImagingFrequency": 123.259,
  "InPlanePhaseEncodingDirectionDICOM": "COL",
  "InstitutionAddress": "Chemin Queen-Mary 4565,Montreal,District,CA,H3W 1W5",
  "InstitutionName": "IUGM",
  "InstitutionalDepartmentName": "Department",
  "MRAcquisitionType": "2D",
  "MagneticFieldStrength": 3,
  "Manufacturer": "Siemens",
  "ManufacturersModelName": "Prisma_fit",
  "MatrixCoilMode": "SENSE",
  "Modality": "MR",
  "MultibandAccelerationFactor": 4,
  "PartialFourier": 1,
  "PatientPosition": "HFS",
  "PercentPhaseFOV": 100,
  "PercentSampling": 100,
  "PhaseEncodingDirection": "j",
  "PhaseEncodingSteps": 104,
  "PhaseResolution": 1,
  "PixelBandwidth": 2290,
  "ProcedureStepDescription": "video^friends",
  "ProtocolName": "func_task-friends-s06e07b",
  "PulseSequenceDetails": "%CustomerSeq%\\cmrr_mbep2d_bold",
  "ReceiveCoilActiveElements": "HC1-7;NC1,2",
  "ReceiveCoilName": "HeadNeck_64",
  "ReconMatrixPE": 104,
  "RepetitionTime": 1.49,
  "SAR": 0.0298661,
  "ScanOptions": "FS",
  "ScanningSequence": "EP",
  "SequenceName": "epfid2d1_104",
  "SequenceVariant": "SK\\SS",
  "SeriesDescription": "func_task-friends-s06e07b",
  "SeriesNumber": 13,
  "ShimSetting": [621, -7259, -8799, 593, -8, -207, -30, -13],
  "SliceThickness": 2,
  "SliceTiming": [0, 0.785, 0.1, 0.8825, 0.1975, 0.98, 0.295, 1.08, 0.3925, 1.1775, 0.49, 1.275, 0.59, 1.3725, 0.6875, 0, 0.785, 0.1, 0.8825, 0.1975, 0.98, 0.295, 1.08, 0.3925, 1.1775, 0.49, 1.275, 0.59, 1.3725, 0.6875, 0, 0.785, 0.1, 0.8825, 0.1975, 0.98, 0.295, 1.08, 0.3925, 1.1775, 0.49, 1.275, 0.59, 1.3725, 0.6875, 0, 0.785, 0.1, 0.8825, 0.1975, 0.98, 0.295, 1.08, 0.3925, 1.1775, 0.49, 1.275, 0.59, 1.3725, 0.6875],
  "SoftwareVersions": "syngo MR E11",
  "SpacingBetweenSlices": 2,
  "StationName": "MRC35049",
  "TaskName": "s06e07b",
  "TotalReadoutTime": 0.0576811,
  "TxRefAmp": 217.449,
  "WipMemBlock": "03181958-5dbe-46fa-b9b0-43b2f6fc5c21||Sequence: R016 ve11c/master r/e634e98; Dec 19 2017 11:00:25 by eja",
  "dcmmeta_affine": [
    [-1.9963974952697754, 0.09938652813434601, -0.0672270655632019, 98.56917572021484],
    [0.115974061191082, 1.8857182264328003, -0.6562138795852661, -80.00045776367188],
    [-0.030776245519518852, 0.6589301228523254, 1.8880847692489624, -59.050838470458984],
    [0.0, 0.0, 0.0, 1.0]
],
  "dcmmeta_reorient_transform": [
    [0.0, -1.0, 0.0, 103.0],
    [1.0, 0.0, 0.0, 0.0],
    [0.0, 0.0, 1.0, 0.0],
    [0.0, 0.0, 0.0, 1.0]
],
  "dcmmeta_shape": [104, 104, 60, 479],
  "dcmmeta_slice_dim": 2,
  "dcmmeta_version": 0.6,
  "global": {
    "const": {
      "AcquisitionMatrix": [104, 0, 0, 104],
      "AngioFlag": "N",
      "BitsAllocated": 16,
      "BitsStored": 16,
      "BodyPartExamined": "BRAIN",
      "Columns": 832,
      "EchoNumbers": 1,
      "EchoTime": 37.0,
      "EchoTrainLength": 104,
      "FlipAngle": 52.0,
      "HighBit": 15,
      "ImageOrientationPatient": [0.9981987327057, -0.0579870305354, -0.0153881225114, 0.0496932632805, 0.94285913314436, -0.3294650734612],
      "ImagePositionPatient": [-871.67135878669, -758.41541737356, 259.87209221877],
      "ImageType": [
        "ORIGINAL",
        "PRIMARY",
        "M",
        "MB",
        "ND",
        "MOSAIC"
],
      "ImagedNucleus": "1H",
      "ImagingFrequency": 123.258783,
      "InPlanePhaseEncodingDirection": "COL",
      "MRAcquisitionType": "2D",
      "MagneticFieldStrength": 3.0,
      "Manufacturer": "SIEMENS",
      "ManufacturerModelName": "Prisma_fit",
      "Modality": "MR",
      "NumberOfAverages": 1.0,
      "NumberOfPhaseEncodingSteps": 104,
      "PercentPhaseFieldOfView": 100.0,
      "PercentSampling": 100.0,
      "PerformedProcedureStepStartTime": "150205.294000",
      "PhotometricInterpretation": "MONOCHROME2",
      "PixelBandwidth": 2290.0,
      "PixelRepresentation": 0,
      "PixelSpacing": [2.0, 2.0],
      "ProtocolName": "func_task-friends-s06e07b",
      "RepetitionTime": 1490.0,
      "Rows": 832,
      "SAR": 0.02986608510016,
      "SamplesPerPixel": 1,
      "ScanOptions": "FS",
      "ScanningSequence": "EP",
      "SequenceName": "epfid2d1_104",
      "SequenceVariant": [
        "SK",
        "SS"
],
      "SeriesDescription": "func_task-friends-s06e07b",
      "SeriesNumber": 13,
      "SeriesTime": "161037.869000",
      "SliceLocation": -32.811048106431,
      "SliceThickness": 2.0,
      "SmallestImagePixelValue": 0,
      "SoftwareVersions": "syngo MR E11",
      "SpacingBetweenSlices": 2.0000000376104,
      "SpecificCharacterSet": "ISO_IR 100",
      "StudyID": "1",
      "StudyTime": "150205.132000",
      "TransmitCoilName": "Body",
      "VariableFlipAngleFlag": "N",
      "WindowCenterWidthExplanation": "Algo1",
      "dBdt": 0.0},
    "slices": {}
  },
  "time": {
    "samples": {
      "AcquisitionNumber": [1, 2, 3, 4, 5, 6, 7, 8, 9, 10, 11, 12, 13, 14, 15, 16, 17, 18, 19, 20, 21, 22, 23, 24, 25, 26, 27, 28, 29, 30, 31, 32, 33, 34, 35, 36, 37, 38, 39, 40, 41, 42, 43, 44, 45, 46, 47, 48, 49, 50, 51, 52, 53, 54, 55, 56, 57, 58, 59, 60, 61, 62, 63, 64, 65, 66, 67, 68, 69, 70, 71, 72, 73, 74, 75, 76, 77, 78, 79, 80, 81, 82, 83, 84, 85, 86, 87, 88, 89, 90, 91, 92, 93, 94, 95, 96, 97, 98, 99, 100, 101, 102, 103, 104, 105, 106, 107, 108, 109, 110, 111, 112, 113, 114, 115, 116, 117, 118, 119, 120, 121, 122, 123, 124, 125, 126, 127, 128, 129, 130, 131, 132, 133, 134, 135, 136, 137, 138, 139, 140, 141, 142, 143, 144, 145, 146, 147, 148, 149, 150, 151, 152, 153, 154, 155, 156, 157, 158, 159, 160, 161, 162, 163, 164, 165, 166, 167, 168, 169, 170, 171, 172, 173, 174, 175, 176, 177, 178, 179, 180, 181, 182, 183, 184, 185, 186, 187, 188, 189, 190, 191, 192, 193, 194, 195, 196, 197, 198, 199, 200, 201, 202, 203, 204, 205, 206, 207, 208, 209, 210, 211, 212, 213, 214, 215, 216, 217, 218, 219, 220, 221, 222, 223, 224, 225, 226, 227, 228, 229, 230, 231, 232, 233, 234, 235, 236, 237, 238, 239, 240, 241, 242, 243, 244, 245, 246, 247, 248, 249, 250, 251, 252, 253, 254, 255, 256, 257, 258, 259, 260, 261, 262, 263, 264, 265, 266, 267, 268, 269, 270, 271, 272, 273, 274, 275, 276, 277, 278, 279, 280, 281, 282, 283, 284, 285, 286, 287, 288, 289, 290, 291, 292, 293, 294, 295, 296, 297, 298, 299, 300, 301, 302, 303, 304, 305, 306, 307, 308, 309, 310, 311, 312, 313, 314, 315, 316, 317, 318, 319, 320, 321, 322, 323, 324, 325, 326, 327, 328, 329, 330, 331, 332, 333, 334, 335, 336, 337, 338, 339, 340, 341, 342, 343, 344, 345, 346, 347, 348, 349, 350, 351, 352, 353, 354, 355, 356, 357, 358, 359, 360, 361, 362, 363, 364, 365, 366, 367, 368, 369, 370, 371, 372, 373, 374, 375, 376, 377, 378, 379, 380, 381, 382, 383, 384, 385, 386, 387, 388, 389, 390, 391, 392, 393, 394, 395, 396, 397, 398, 399, 400, 401, 402, 403, 404, 405, 406, 407, 408, 409, 410, 411, 412, 413, 414, 415, 416, 417, 418, 419, 420, 421, 422, 423, 424, 425, 426, 427, 428, 429, 430, 431, 432, 433, 434, 435, 436, 437, 438, 439, 440, 441, 442, 443, 444, 445, 446, 447, 448, 449, 450, 451, 452, 453, 454, 455, 456, 457, 458, 459, 460, 461, 462, 463, 464, 465, 466, 467, 468, 469, 470, 471, 472, 473, 474, 475, 476, 477, 478, 479],
      "AcquisitionTime": ["160942.800000", "160944.290000", "160945.780000", "160947.270000", "160948.760000", "160950.250000", "160951.740000", "160953.230000", "160954.720000", "160956.210000", "160957.700000", "160959.190000", "161000.680000", "161002.170000", "161003.660000", "161005.150000", "161006.640000", "161008.130000", "161009.620000", "161011.110000", "161012.600000", "161014.090000", "161015.580000", "161017.070000", "161018.560000", "161020.050000", "161021.540000", "161023.030000", "161024.520000", "161026.010000", "161027.500000", "161028.990000", "161030.480000", "161031.970000", "161033.460000", "161034.950000", "161036.440000", "161037.930000", "161039.420000", "161040.910000", "161042.400000", "161043.890000", "161045.380000", "161046.870000", "161048.360000", "161049.850000", "161051.340000", "161052.830000", "161054.320000", "161055.810000", "161057.300000", "161058.790000", "161100.280000", "161101.770000", "161103.260000", "161104.750000", "161106.240000", "161107.730000", "161109.220000", "161110.710000", "161112.200000", "161113.690000", "161115.180000", "161116.670000", "161118.160000", "161119.650000", "161121.140000", "161122.630000", "161124.120000", "161125.610000", "161127.100000", "161128.590000", "161130.080000", "161131.570000", "161133.060000", "161134.550000", "161136.040000", "161137.530000", "161139.020000", "161140.510000", "161142.000000", "161143.490000", "161144.980000", "161146.470000", "161147.960000", "161149.450000", "161150.940000", "161152.430000", "161153.920000", "161155.410000", "161156.900000", "161158.390000", "161159.880000", "161201.370000", "161202.860000", "161204.350000", "161205.840000", "161207.330000", "161208.820000", "161210.310000", "161211.800000", "161213.290000", "161214.780000", "161216.270000", "161217.760000", "161219.250000", "161220.740000", "161222.230000", "161223.720000", "161225.210000", "161226.700000", "161228.190000", "161229.680000", "161231.170000", "161232.660000", "161234.150000", "161235.640000", "161237.130000", "161238.620000", "161240.110000", "161241.600000", "161243.090000", "161244.580000", "161246.070000", "161247.560000", "161249.050000", "161250.540000", "161252.030000", "161253.520000", "161255.010000", "161256.500000", "161257.990000", "161259.480000", "161300.970000", "161302.460000", "161303.950000", "161305.440000", "161306.930000", "161308.420000", "161309.910000", "161311.400000", "161312.890000", "161314.380000", "161315.870000", "161317.360000", "161318.850000", "161320.340000", "161321.830000", "161323.320000", "161324.810000", "161326.300000", "161327.790000", "161329.280000", "161330.770000", "161332.260000", "161333.750000", "161335.240000", "161336.730000", "161338.220000", "161339.710000", "161341.200000", "161342.690000", "161344.180000", "161345.670000", "161347.160000", "161348.650000", "161350.140000", "161351.630000", "161353.120000", "161354.610000", "161356.100000", "161357.590000", "161359.080000", "161400.570000", "161402.060000", "161403.550000", "161405.040000", "161406.530000", "161408.020000", "161409.510000", "161411.000000", "161412.490000", "161413.980000", "161415.470000", "161416.960000", "161418.450000", "161419.940000", "161421.430000", "161422.920000", "161424.410000", "161425.900000", "161427.390000", "161428.880000", "161430.370000", "161431.860000", "161433.350000", "161434.840000", "161436.330000", "161437.820000", "161439.310000", "161440.800000", "161442.290000", "161443.780000", "161445.270000", "161446.760000", "161448.250000", "161449.740000", "161451.230000", "161452.720000", "161454.210000", "161455.700000", "161457.190000", "161458.680000", "161500.170000", "161501.660000", "161503.150000", "161504.640000", "161506.130000", "161507.620000", "161509.110000", "161510.600000", "161512.090000", "161513.580000", "161515.070000", "161516.560000", "161518.050000", "161519.540000", "161521.030000", "161522.520000", "161524.010000", "161525.500000", "161526.990000", "161528.480000", "161529.970000", "161531.460000", "161532.950000", "161534.440000", "161535.930000", "161537.420000", "161538.910000", "161540.400000", "161541.890000", "161543.380000", "161544.870000", "161546.360000", "161547.850000", "161549.340000", "161550.830000", "161552.320000", "161553.810000", "161555.300000", "161556.790000", "161558.280000", "161559.770000", "161601.260000", "161602.750000", "161604.240000", "161605.730000", "161607.220000", "161608.710000", "161610.200000", "161611.690000", "161613.180000", "161614.670000", "161616.160000", "161617.650000", "161619.140000", "161620.630000", "161622.120000", "161623.610000", "161625.100000", "161626.590000", "161628.080000", "161629.570000", "161631.060000", "161632.550000", "161634.040000", "161635.530000", "161637.020000", "161638.510000", "161640.000000", "161641.490000", "161642.980000", "161644.470000", "161645.960000", "161647.450000", "161648.940000", "161650.430000", "161651.920000", "161653.410000", "161654.900000", "161656.390000", "161657.880000", "161659.370000", "161700.860000", "161702.350000", "161703.840000", "161705.330000", "161706.820000", "161708.310000", "161709.800000", "161711.290000", "161712.780000", "161714.270000", "161715.760000", "161717.250000", "161718.740000", "161720.230000", "161721.720000", "161723.210000", "161724.700000", "161726.190000", "161727.680000", "161729.170000", "161730.660000", "161732.150000", "161733.640000", "161735.130000", "161736.620000", "161738.110000", "161739.600000", "161741.090000", "161742.580000", "161744.070000", "161745.560000", "161747.050000", "161748.540000", "161750.030000", "161751.520000", "161753.010000", "161754.500000", "161755.990000", "161757.480000", "161758.970000", "161800.460000", "161801.950000", "161803.440000", "161804.930000", "161806.420000", "161807.910000", "161809.400000", "161810.890000", "161812.380000", "161813.870000", "161815.360000", "161816.850000", "161818.340000", "161819.830000", "161821.320000", "161822.810000", "161824.300000", "161825.790000", "161827.280000", "161828.770000", "161830.260000", "161831.750000", "161833.240000", "161834.730000", "161836.220000", "161837.710000", "161839.200000", "161840.690000", "161842.180000", "161843.670000", "161845.160000", "161846.650000", "161848.140000", "161849.630000", "161851.120000", "161852.610000", "161854.100000", "161855.590000", "161857.080000", "161858.570000", "161900.060000", "161901.550000", "161903.040000", "161904.530000", "161906.020000", "161907.510000", "161909.000000", "161910.490000", "161911.980000", "161913.470000", "161914.960000", "161916.450000", "161917.940000", "161919.430000", "161920.920000", "161922.410000", "161923.900000", "161925.390000", "161926.880000", "161928.370000", "161929.860000", "161931.350000", "161932.840000", "161934.330000", "161935.820000", "161937.310000", "161938.800000", "161940.290000", "161941.780000", "161943.270000", "161944.760000", "161946.250000", "161947.740000", "161949.230000", "161950.720000", "161952.210000", "161953.700000", "161955.190000", "161956.680000", "161958.170000", "161959.660000", "162001.150000", "162002.640000", "162004.130000", "162005.620000", "162007.110000", "162008.600000", "162010.090000", "162011.580000", "162013.070000", "162014.560000", "162016.050000", "162017.540000", "162019.030000", "162020.520000", "162022.010000", "162023.500000", "162024.990000", "162026.480000", "162027.970000", "162029.460000", "162030.950000", "162032.440000", "162033.930000", "162035.420000", "162036.910000", "162038.400000", "162039.890000", "162041.380000", "162042.870000", "162044.360000", "162045.850000", "162047.340000", "162048.830000", "162050.320000", "162051.810000", "162053.300000", "162054.790000", "162056.280000", "162057.770000", "162059.260000", "162100.750000", "162102.240000", "162103.730000", "162105.220000", "162106.710000", "162108.200000", "162109.690000", "162111.180000", "162112.670000", "162114.160000", "162115.650000", "162117.140000", "162118.630000", "162120.120000", "162121.610000", "162123.100000", "162124.590000", "162126.080000", "162127.570000", "162129.060000", "162130.550000", "162132.040000", "162133.530000", "162135.020000"],
      "ContentTime": ["161037.871000", "161037.875000", "161057.841000", "161057.844000", "161057.847000", "161057.850000", "161057.853000", "161057.855000", "161057.858000", "161057.861000", "161057.864000", "161057.867000", "161057.878000", "161057.881000", "161057.884000", "161057.890000", "161057.893000", "161057.896000", "161057.908000", "161057.911000", "161057.914000", "161057.916000", "161117.842000", "161117.845000", "161117.848000", "161117.851000", "161117.854000", "161117.857000", "161117.860000", "161117.863000", "161117.865000", "161117.868000", "161117.871000", "161117.874000", "161117.877000", "161117.880000", "161117.883000", "161117.886000", "161117.889000", "161117.892000", "161117.895000", "161117.897000", "161137.842000", "161137.845000", "161137.848000", "161137.851000", "161137.854000", "161137.857000", "161137.859000", "161137.862000", "161137.865000", "161137.868000", "161137.871000", "161137.874000", "161137.883000", "161137.886000", "161137.888000", "161137.891000", "161137.894000", "161137.897000", "161137.900000", "161137.903000", "161157.842000", "161157.845000", "161157.862000", "161157.865000", "161157.868000", "161157.871000", "161157.874000", "161157.877000", "161157.880000", "161157.883000", "161157.886000", "161157.888000", "161157.891000", "161157.894000", "161157.897000", "161157.900000", "161157.903000", "161157.906000", "161157.909000", "161157.912000", "161217.842000", "161217.845000", "161217.848000", "161217.851000", "161217.854000", "161217.857000", "161217.860000", "161217.863000", "161217.867000", "161217.870000", "161217.874000", "161217.876000", "161217.880000", "161217.883000", "161217.885000", "161217.888000", "161217.891000", "161217.894000", "161217.897000", "161217.900000", "161257.842000", "161257.845000", "161257.848000", "161257.851000", "161257.854000", "161257.857000", "161257.860000", "161257.863000", "161257.866000", "161257.868000", "161257.871000", "161257.874000", "161257.877000", "161257.880000", "161257.883000", "161257.886000", "161257.889000", "161257.892000", "161257.895000", "161257.898000", "161257.901000", "161257.904000", "161257.907000", "161257.910000", "161257.912000", "161257.915000", "161257.918000", "161257.922000", "161337.842000", "161337.845000", "161337.848000", "161337.851000", "161337.854000", "161337.857000", "161337.860000", "161337.863000", "161337.866000", "161337.869000", "161337.872000", "161337.874000", "161337.877000", "161337.880000", "161337.883000", "161337.886000", "161337.889000", "161337.892000", "161337.895000", "161337.898000", "161337.901000", "161337.904000", "161337.907000", "161337.910000", "161337.913000", "161337.916000", "161337.919000", "161417.842000", "161417.845000", "161417.848000", "161417.851000", "161417.854000", "161417.857000", "161417.860000", "161417.863000", "161417.866000", "161417.868000", "161417.871000", "161417.874000", "161417.877000", "161417.880000", "161417.883000", "161417.886000", "161417.889000", "161417.892000", "161417.895000", "161417.898000", "161417.901000", "161417.904000", "161417.907000", "161417.910000", "161417.913000", "161417.916000", "161417.918000", "161457.842000", "161457.845000", "161457.848000", "161457.851000", "161457.854000", "161457.857000", "161457.860000", "161457.863000", "161457.866000", "161457.869000", "161457.871000", "161457.874000", "161457.877000", "161457.880000", "161457.883000", "161457.886000", "161457.889000", "161457.892000", "161457.895000", "161457.898000", "161457.901000", "161457.905000", "161457.917000", "161457.920000", "161457.923000", "161457.926000", "161537.841000", "161537.844000", "161537.847000", "161537.850000", "161537.853000", "161537.856000", "161537.859000", "161537.862000", "161537.865000", "161537.868000", "161537.870000", "161537.873000", "161537.876000", "161537.879000", "161537.882000", "161537.885000", "161537.888000", "161537.891000", "161537.894000", "161537.897000", "161537.900000", "161537.903000", "161537.906000", "161537.909000", "161537.912000", "161537.915000", "161537.917000", "161617.842000", "161617.845000", "161617.848000", "161617.851000", "161617.861000", "161617.864000", "161617.867000", "161617.870000", "161617.873000", "161617.876000", "161617.902000", "161617.905000", "161617.908000", "161617.911000", "161617.914000", "161617.917000", "161617.920000", "161617.923000", "161617.925000", "161617.929000", "161617.932000", "161617.935000", "161617.943000", "161617.946000", "161617.949000", "161617.952000", "161617.955000", "161657.842000", "161657.845000", "161657.848000", "161657.851000", "161657.854000", "161657.857000", "161657.860000", "161657.863000", "161657.865000", "161657.868000", "161657.871000", "161657.874000", "161657.877000", "161657.880000", "161657.883000", "161657.886000", "161657.889000", "161657.892000", "161657.895000", "161657.898000", "161657.901000", "161657.904000", "161657.907000", "161657.910000", "161657.913000", "161657.916000", "161657.919000", "161737.842000", "161737.845000", "161737.848000", "161737.851000", "161737.854000", "161737.857000", "161737.860000", "161737.863000", "161737.866000", "161737.869000", "161737.872000", "161737.875000", "161737.878000", "161737.881000", "161737.884000", "161737.886000", "161737.889000", "161737.892000", "161737.895000", "161737.898000", "161737.901000", "161737.904000", "161737.907000", "161737.910000", "161737.913000", "161737.916000", "161737.919000", "161817.842000", "161817.845000", "161817.848000", "161817.851000", "161817.854000", "161817.857000", "161817.860000", "161817.863000", "161817.866000", "161817.869000", "161817.872000", "161817.875000", "161817.878000", "161817.881000", "161817.884000", "161817.887000", "161817.889000", "161817.892000", "161817.895000", "161817.898000", "161817.901000", "161817.904000", "161817.907000", "161817.910000", "161817.913000", "161817.916000", "161817.919000", "161857.842000", "161857.845000", "161857.848000", "161857.851000", "161857.854000", "161857.857000", "161857.860000", "161857.863000", "161857.866000", "161857.869000", "161857.872000", "161857.875000", "161857.878000", "161857.881000", "161857.884000", "161857.887000", "161857.890000", "161857.893000", "161857.896000", "161857.898000", "161857.902000", "161857.905000", "161857.908000", "161857.912000", "161857.915000", "161857.918000", "161937.842000", "161937.845000", "161937.848000", "161937.851000", "161937.854000", "161937.857000", "161937.860000", "161937.864000", "161937.867000", "161937.870000", "161937.873000", "161937.875000", "161937.878000", "161937.881000", "161937.884000", "161937.887000", "161937.890000", "161937.893000", "161937.896000", "161937.899000", "161937.902000", "161937.905000", "161937.908000", "161937.911000", "161937.914000", "161937.917000", "161937.920000", "162017.841000", "162017.844000", "162017.847000", "162017.850000", "162017.853000", "162017.856000", "162017.859000", "162017.862000", "162017.865000", "162017.868000", "162017.871000", "162017.874000", "162017.877000", "162017.880000", "162017.883000", "162017.886000", "162017.888000", "162017.891000", "162017.894000", "162017.897000", "162017.900000", "162017.903000", "162017.906000", "162017.909000", "162017.912000", "162017.915000", "162017.918000", "162057.842000", "162057.845000", "162057.848000", "162057.851000", "162057.854000", "162057.857000", "162057.879000", "162057.882000", "162057.885000", "162057.888000", "162057.891000", "162057.894000", "162057.897000", "162057.900000", "162057.902000", "162057.905000", "162057.908000", "162057.911000", "162057.914000", "162057.917000", "162057.920000", "162057.923000", "162057.926000", "162057.929000", "162057.932000", "162057.935000", "162057.938000", "162137.420000", "162137.424000", "162137.427000", "162137.436000", "162137.439000", "162137.442000", "162137.446000", "162137.449000", "162137.452000", "162137.455000", "162137.458000", "162137.461000", "162137.464000", "162137.467000", "162137.470000", "162137.473000", "162137.476000", "162137.479000", "162137.482000", "162137.485000", "162137.488000", "162137.491000", "162137.494000", "162137.497000", "162137.500000", "162137.503000", "162137.506000"],
