{
  "AcquisitionMatrixPE": 104,
  "AcquisitionNumber": 1,
  "AcquisitionTime": "16:33:33.677500",
  "BandwidthPerPixelPhaseEncode": 17.17,
  "BaseResolution": 104,
  "BodyPartExamined": "BRAIN",
  "CoilCombinationMethod": "Sum of Squares",
  "ConsistencyInfo": "N4_VE11C_LATEST_20160120",
  "ConversionSoftware": "dcm2niix",
  "ConversionSoftwareVersion": "v1.0.20211006",
  "DerivedVendorReportedEchoSpacing": 0.000560011,
  "DeviceSerialNumber": "167006",
  "DwellTime": 2.1e-06,
  "EchoTime": 0.037,
  "EchoTrainLength": 104,
  "EffectiveEchoSpacing": 0.000560011,
  "FlipAngle": 52,
  "HeudiconvVersion": "0.11.3.post9+gc939bf8",
  "ImageComments": "Unaliased MB4/PE3/LB",
  "ImageOrientationPatientDICOM": [0.998199, -0.057987, -0.0153881, 0.0496933, 0.942859, -0.329465],
  "ImageOrientationText": "Tra>Cor(-19.2)>Sag(-1.9)",
  "ImageType": [
    "ORIGINAL",
    "PRIMARY",
    "M",
    "MB",
    "ND",
    "MOSAIC"
],
  "ImagingFrequency": 123.259,
  "InPlanePhaseEncodingDirectionDICOM": "COL",
  "InstitutionAddress": "Chemin Queen-Mary 4565,Montreal,District,CA,H3W 1W5",
  "InstitutionName": "IUGM",
  "InstitutionalDepartmentName": "Department",
  "MRAcquisitionType": "2D",
  "MagneticFieldStrength": 3,
  "Manufacturer": "Siemens",
  "ManufacturersModelName": "Prisma_fit",
  "MatrixCoilMode": "SENSE",
  "Modality": "MR",
  "MultibandAccelerationFactor": 4,
  "PartialFourier": 1,
  "PatientPosition": "HFS",
  "PercentPhaseFOV": 100,
  "PercentSampling": 100,
  "PhaseEncodingDirection": "j",
  "PhaseEncodingSteps": 104,
  "PhaseResolution": 1,
  "PixelBandwidth": 2290,
  "ProcedureStepDescription": "video^friends",
  "ProtocolName": "func_task-friends-s06e08a",
  "PulseSequenceDetails": "%CustomerSeq%\\cmrr_mbep2d_bold",
  "ReceiveCoilActiveElements": "HC1-7;NC1,2",
  "ReceiveCoilName": "HeadNeck_64",
  "ReconMatrixPE": 104,
  "RepetitionTime": 1.49,
  "SAR": 0.0298546,
  "ScanOptions": "FS",
  "ScanningSequence": "EP",
  "SequenceName": "epfid2d1_104",
  "SequenceVariant": "SK\\SS",
  "SeriesDescription": "func_task-friends-s06e08a",
  "SeriesNumber": 21,
  "ShimSetting": [621, -7259, -8799, 593, -8, -207, -30, -13],
  "SliceThickness": 2,
  "SliceTiming": [0, 0.7825, 0.0975, 0.88, 0.195, 0.98, 0.2925, 1.0775, 0.39, 1.175, 0.49, 1.2725, 0.5875, 1.37, 0.685, 0, 0.7825, 0.0975, 0.88, 0.195, 0.98, 0.2925, 1.0775, 0.39, 1.175, 0.49, 1.2725, 0.5875, 1.37, 0.685, 0, 0.7825, 0.0975, 0.88, 0.195, 0.98, 0.2925, 1.0775, 0.39, 1.175, 0.49, 1.2725, 0.5875, 1.37, 0.685, 0, 0.7825, 0.0975, 0.88, 0.195, 0.98, 0.2925, 1.0775, 0.39, 1.175, 0.49, 1.2725, 0.5875, 1.37, 0.685],
  "SoftwareVersions": "syngo MR E11",
  "SpacingBetweenSlices": 2,
  "StationName": "MRC35049",
  "TaskName": "s06e08a",
  "TotalReadoutTime": 0.0576811,
  "TxRefAmp": 217.449,
  "WipMemBlock": "7c1522e3-523f-4436-978e-2a923cfef730||Sequence: R016 ve11c/master r/e634e98; Dec 19 2017 11:00:25 by eja",
  "dcmmeta_affine": [
    [-1.9963974952697754, 0.09938652813434601, -0.0672270655632019, 98.56917572021484],
    [0.115974061191082, 1.8857182264328003, -0.6562138795852661, -80.00045776367188],
    [-0.030776245519518852, 0.6589301228523254, 1.8880847692489624, -59.050838470458984],
    [0.0, 0.0, 0.0, 1.0]
],
  "dcmmeta_reorient_transform": [
    [0.0, -1.0, 0.0, 103.0],
    [1.0, 0.0, 0.0, 0.0],
    [0.0, 0.0, 1.0, 0.0],
    [0.0, 0.0, 0.0, 1.0]
],
  "dcmmeta_shape": [104, 104, 60, 438],
  "dcmmeta_slice_dim": 2,
  "dcmmeta_version": 0.6,
  "global": {
    "const": {
      "AcquisitionMatrix": [104, 0, 0, 104],
      "AngioFlag": "N",
      "BitsAllocated": 16,
      "BitsStored": 16,
      "BodyPartExamined": "BRAIN",
      "Columns": 832,
      "EchoNumbers": 1,
      "EchoTime": 37.0,
      "EchoTrainLength": 104,
      "FlipAngle": 52.0,
      "HighBit": 15,
      "ImageOrientationPatient": [0.9981987327057, -0.0579870305354, -0.0153881225114, 0.0496932632805, 0.94285913314436, -0.3294650734612],
      "ImagePositionPatient": [-871.67135878669, -758.41541737356, 259.87209221877],
      "ImageType": [
        "ORIGINAL",
        "PRIMARY",
        "M",
        "MB",
        "ND",
        "MOSAIC"
],
      "ImagedNucleus": "1H",
      "ImagingFrequency": 123.25879,
      "InPlanePhaseEncodingDirection": "COL",
      "MRAcquisitionType": "2D",
      "MagneticFieldStrength": 3.0,
      "Manufacturer": "SIEMENS",
      "ManufacturerModelName": "Prisma_fit",
      "Modality": "MR",
      "NumberOfAverages": 1.0,
      "NumberOfPhaseEncodingSteps": 104,
      "PercentPhaseFieldOfView": 100.0,
      "PercentSampling": 100.0,
      "PerformedProcedureStepStartTime": "150205.294000",
      "PhotometricInterpretation": "MONOCHROME2",
      "PixelBandwidth": 2290.0,
      "PixelRepresentation": 0,
      "PixelSpacing": [2.0, 2.0],
      "ProtocolName": "func_task-friends-s06e08a",
      "RepetitionTime": 1490.0,
      "Rows": 832,
      "SAR": 0.0298545635417,
      "SamplesPerPixel": 1,
      "ScanOptions": "FS",
      "ScanningSequence": "EP",
      "SequenceName": "epfid2d1_104",
      "SequenceVariant": [
        "SK",
        "SS"
],
      "SeriesDescription": "func_task-friends-s06e08a",
      "SeriesNumber": 21,
      "SeriesTime": "163447.236000",
      "SliceLocation": -32.811048106431,
      "SliceThickness": 2.0,
      "SmallestImagePixelValue": 0,
      "SoftwareVersions": "syngo MR E11",
      "SpacingBetweenSlices": 2.0000000376104,
      "SpecificCharacterSet": "ISO_IR 100",
      "StudyID": "1",
      "StudyTime": "150205.132000",
      "TransmitCoilName": "Body",
      "VariableFlipAngleFlag": "N",
      "WindowCenterWidthExplanation": "Algo1",
      "dBdt": 0.0},
    "slices": {}
  },
  "time": {
    "samples": {
      "AcquisitionNumber": [1, 2, 3, 4, 5, 6, 7, 8, 9, 10, 11, 12, 13, 14, 15, 16, 17, 18, 19, 20, 21, 22, 23, 24, 25, 26, 27, 28, 29, 30, 31, 32, 33, 34, 35, 36, 37, 38, 39, 40, 41, 42, 43, 44, 45, 46, 47, 48, 49, 50, 51, 52, 53, 54, 55, 56, 57, 58, 59, 60, 61, 62, 63, 64, 65, 66, 67, 68, 69, 70, 71, 72, 73, 74, 75, 76, 77, 78, 79, 80, 81, 82, 83, 84, 85, 86, 87, 88, 89, 90, 91, 92, 93, 94, 95, 96, 97, 98, 99, 100, 101, 102, 103, 104, 105, 106, 107, 108, 109, 110, 111, 112, 113, 114, 115, 116, 117, 118, 119, 120, 121, 122, 123, 124, 125, 126, 127, 128, 129, 130, 131, 132, 133, 134, 135, 136, 137, 138, 139, 140, 141, 142, 143, 144, 145, 146, 147, 148, 149, 150, 151, 152, 153, 154, 155, 156, 157, 158, 159, 160, 161, 162, 163, 164, 165, 166, 167, 168, 169, 170, 171, 172, 173, 174, 175, 176, 177, 178, 179, 180, 181, 182, 183, 184, 185, 186, 187, 188, 189, 190, 191, 192, 193, 194, 195, 196, 197, 198, 199, 200, 201, 202, 203, 204, 205, 206, 207, 208, 209, 210, 211, 212, 213, 214, 215, 216, 217, 218, 219, 220, 221, 222, 223, 224, 225, 226, 227, 228, 229, 230, 231, 232, 233, 234, 235, 236, 237, 238, 239, 240, 241, 242, 243, 244, 245, 246, 247, 248, 249, 250, 251, 252, 253, 254, 255, 256, 257, 258, 259, 260, 261, 262, 263, 264, 265, 266, 267, 268, 269, 270, 271, 272, 273, 274, 275, 276, 277, 278, 279, 280, 281, 282, 283, 284, 285, 286, 287, 288, 289, 290, 291, 292, 293, 294, 295, 296, 297, 298, 299, 300, 301, 302, 303, 304, 305, 306, 307, 308, 309, 310, 311, 312, 313, 314, 315, 316, 317, 318, 319, 320, 321, 322, 323, 324, 325, 326, 327, 328, 329, 330, 331, 332, 333, 334, 335, 336, 337, 338, 339, 340, 341, 342, 343, 344, 345, 346, 347, 348, 349, 350, 351, 352, 353, 354, 355, 356, 357, 358, 359, 360, 361, 362, 363, 364, 365, 366, 367, 368, 369, 370, 371, 372, 373, 374, 375, 376, 377, 378, 379, 380, 381, 382, 383, 384, 385, 386, 387, 388, 389, 390, 391, 392, 393, 394, 395, 396, 397, 398, 399, 400, 401, 402, 403, 404, 405, 406, 407, 408, 409, 410, 411, 412, 413, 414, 415, 416, 417, 418, 419, 420, 421, 422, 423, 424, 425, 426, 427, 428, 429, 430, 431, 432, 433, 434, 435, 436, 437, 438],
      "AcquisitionTime": ["163333.677500", "163335.167500", "163336.657500", "163338.147500", "163339.637500", "163341.127500", "163342.617500", "163344.107500", "163345.597500", "163347.087500", "163348.577500", "163350.067500", "163351.557500", "163353.047500", "163354.537500", "163356.027500", "163357.517500", "163359.007500", "163400.497500", "163401.987500", "163403.477500", "163404.967500", "163406.457500", "163407.947500", "163409.437500", "163410.927500", "163412.417500", "163413.907500", "163415.397500", "163416.887500", "163418.377500", "163419.867500", "163421.357500", "163422.847500", "163424.337500", "163425.827500", "163427.317500", "163428.807500", "163430.297500", "163431.787500", "163433.277500", "163434.767500", "163436.257500", "163437.747500", "163439.237500", "163440.727500", "163442.217500", "163443.707500", "163445.197500", "163446.687500", "163448.177500", "163449.667500", "163451.157500", "163452.647500", "163454.137500", "163455.627500", "163457.117500", "163458.607500", "163500.097500", "163501.587500", "163503.077500", "163504.567500", "163506.057500", "163507.547500", "163509.037500", "163510.527500", "163512.017500", "163513.507500", "163514.997500", "163516.487500", "163517.977500", "163519.467500", "163520.957500", "163522.447500", "163523.937500", "163525.427500", "163526.917500", "163528.407500", "163529.897500", "163531.387500", "163532.877500", "163534.367500", "163535.857500", "163537.347500", "163538.837500", "163540.327500", "163541.817500", "163543.307500", "163544.797500", "163546.287500", "163547.777500", "163549.267500", "163550.757500", "163552.247500", "163553.737500", "163555.227500", "163556.717500", "163558.207500", "163559.697500", "163601.187500", "163602.677500", "163604.167500", "163605.657500", "163607.147500", "163608.637500", "163610.127500", "163611.617500", "163613.107500", "163614.597500", "163616.087500", "163617.577500", "163619.067500", "163620.557500", "163622.047500", "163623.537500", "163625.027500", "163626.517500", "163628.007500", "163629.497500", "163630.987500", "163632.477500", "163633.967500", "163635.457500", "163636.947500", "163638.437500", "163639.927500", "163641.417500", "163642.907500", "163644.397500", "163645.887500", "163647.377500", "163648.867500", "163650.357500", "163651.847500", "163653.337500", "163654.827500", "163656.317500", "163657.807500", "163659.297500", "163700.787500", "163702.277500", "163703.767500", "163705.257500", "163706.747500", "163708.237500", "163709.727500", "163711.217500", "163712.707500", "163714.197500", "163715.687500", "163717.177500", "163718.667500", "163720.157500", "163721.647500", "163723.137500", "163724.627500", "163726.117500", "163727.607500", "163729.097500", "163730.587500", "163732.077500", "163733.567500", "163735.057500", "163736.547500", "163738.037500", "163739.527500", "163741.017500", "163742.507500", "163743.997500", "163745.487500", "163746.977500", "163748.467500", "163749.957500", "163751.447500", "163752.937500", "163754.427500", "163755.917500", "163757.407500", "163758.897500", "163800.387500", "163801.877500", "163803.367500", "163804.857500", "163806.347500", "163807.837500", "163809.327500", "163810.817500", "163812.307500", "163813.797500", "163815.287500", "163816.777500", "163818.267500", "163819.757500", "163821.247500", "163822.737500", "163824.227500", "163825.717500", "163827.207500", "163828.697500", "163830.187500", "163831.677500", "163833.167500", "163834.657500", "163836.147500", "163837.637500", "163839.127500", "163840.617500", "163842.107500", "163843.597500", "163845.087500", "163846.577500", "163848.067500", "163849.557500", "163851.047500", "163852.537500", "163854.027500", "163855.517500", "163857.007500", "163858.497500", "163859.987500", "163901.477500", "163902.967500", "163904.457500", "163905.947500", "163907.437500", "163908.927500", "163910.417500", "163911.907500", "163913.397500", "163914.887500", "163916.377500", "163917.867500", "163919.357500", "163920.847500", "163922.337500", "163923.827500", "163925.317500", "163926.807500", "163928.297500", "163929.787500", "163931.277500", "163932.767500", "163934.257500", "163935.747500", "163937.237500", "163938.727500", "163940.217500", "163941.707500", "163943.197500", "163944.687500", "163946.177500", "163947.667500", "163949.157500", "163950.647500", "163952.137500", "163953.627500", "163955.117500", "163956.607500", "163958.097500", "163959.587500", "164001.077500", "164002.567500", "164004.057500", "164005.547500", "164007.037500", "164008.527500", "164010.017500", "164011.507500", "164012.997500", "164014.487500", "164015.977500", "164017.467500", "164018.957500", "164020.447500", "164021.937500", "164023.427500", "164024.917500", "164026.407500", "164027.897500", "164029.387500", "164030.877500", "164032.367500", "164033.857500", "164035.347500", "164036.837500", "164038.327500", "164039.817500", "164041.307500", "164042.797500", "164044.287500", "164045.777500", "164047.267500", "164048.757500", "164050.247500", "164051.737500", "164053.227500", "164054.717500", "164056.207500", "164057.697500", "164059.187500", "164100.677500", "164102.167500", "164103.657500", "164105.147500", "164106.637500", "164108.127500", "164109.617500", "164111.107500", "164112.597500", "164114.087500", "164115.577500", "164117.067500", "164118.557500", "164120.047500", "164121.537500", "164123.027500", "164124.517500", "164126.007500", "164127.497500", "164128.987500", "164130.477500", "164131.967500", "164133.457500", "164134.947500", "164136.437500", "164137.927500", "164139.417500", "164140.907500", "164142.397500", "164143.887500", "164145.377500", "164146.867500", "164148.357500", "164149.847500", "164151.337500", "164152.827500", "164154.317500", "164155.807500", "164157.297500", "164158.787500", "164200.277500", "164201.767500", "164203.257500", "164204.747500", "164206.237500", "164207.727500", "164209.217500", "164210.707500", "164212.197500", "164213.687500", "164215.177500", "164216.667500", "164218.157500", "164219.647500", "164221.137500", "164222.627500", "164224.117500", "164225.607500", "164227.097500", "164228.587500", "164230.077500", "164231.567500", "164233.057500", "164234.547500", "164236.037500", "164237.527500", "164239.017500", "164240.507500", "164241.997500", "164243.487500", "164244.977500", "164246.467500", "164247.957500", "164249.447500", "164250.937500", "164252.427500", "164253.917500", "164255.407500", "164256.897500", "164258.387500", "164259.877500", "164301.367500", "164302.857500", "164304.347500", "164305.837500", "164307.327500", "164308.817500", "164310.307500", "164311.797500", "164313.287500", "164314.777500", "164316.267500", "164317.757500", "164319.247500", "164320.737500", "164322.227500", "164323.717500", "164325.207500", "164326.697500", "164328.187500", "164329.677500", "164331.167500", "164332.657500", "164334.147500", "164335.637500", "164337.127500", "164338.617500", "164340.107500", "164341.597500", "164343.087500", "164344.577500", "164346.067500", "164347.557500", "164349.047500", "164350.537500", "164352.027500", "164353.517500", "164355.007500", "164356.497500", "164357.987500", "164359.477500", "164400.967500", "164402.457500", "164403.947500", "164405.437500", "164406.927500", "164408.417500", "164409.907500", "164411.397500", "164412.887500", "164414.377500", "164415.867500", "164417.357500", "164418.847500", "164420.337500", "164421.827500", "164423.317500", "164424.807500"],
      "ContentTime": ["163447.239000", "163447.242000", "163447.245000", "163447.259000", "163447.262000", "163447.265000", "163447.268000", "163447.271000", "163447.274000", "163447.277000", "163447.283000", "163447.286000", "163447.289000", "163447.292000", "163447.295000", "163447.298000", "163447.300000", "163447.303000", "163447.306000", "163447.309000", "163447.312000", "163507.206000", "163507.209000", "163507.212000", "163507.215000", "163507.218000", "163507.221000", "163507.224000", "163507.227000", "163507.230000", "163507.233000", "163507.235000", "163507.238000", "163507.241000", "163507.244000", "163507.247000", "163507.250000", "163507.253000", "163507.271000", "163507.274000", "163507.277000", "163527.205000", "163527.208000", "163527.211000", "163527.214000", "163527.225000", "163527.228000", "163527.231000", "163527.234000", "163527.237000", "163527.240000", "163527.243000", "163527.246000", "163527.249000", "163527.252000", "163527.255000", "163527.258000", "163527.261000", "163527.264000", "163527.267000", "163527.270000", "163547.206000", "163547.209000", "163547.212000", "163547.215000", "163547.218000", "163547.221000", "163547.224000", "163547.227000", "163547.230000", "163547.233000", "163547.235000", "163547.238000", "163547.241000", "163547.244000", "163547.247000", "163547.250000", "163547.253000", "163547.256000", "163547.259000", "163547.262000", "163547.265000", "163607.206000", "163607.209000", "163607.212000", "163607.215000", "163607.218000", "163607.221000", "163607.224000", "163607.227000", "163607.230000", "163607.232000", "163607.235000", "163607.238000", "163607.241000", "163607.244000", "163607.247000", "163607.250000", "163607.253000", "163607.256000", "163607.258000", "163607.261000", "163647.206000", "163647.209000", "163647.212000", "163647.215000", "163647.218000", "163647.221000", "163647.224000", "163647.227000", "163647.230000", "163647.233000", "163647.236000", "163647.239000", "163647.242000", "163647.245000", "163647.248000", "163647.250000", "163647.253000", "163647.256000", "163647.259000", "163647.262000", "163647.265000", "163647.268000", "163647.271000", "163647.274000", "163647.277000", "163647.279000", "163647.282000", "163727.206000", "163727.209000", "163727.212000", "163727.215000", "163727.218000", "163727.221000", "163727.224000", "163727.227000", "163727.230000", "163727.233000", "163727.236000", "163727.239000", "163727.242000", "163727.245000", "163727.247000", "163727.250000", "163727.253000", "163727.256000", "163727.259000", "163727.262000", "163727.265000", "163727.268000", "163727.271000", "163727.274000", "163727.277000", "163727.279000", "163727.282000", "163807.206000", "163807.209000", "163807.212000", "163807.215000", "163807.218000", "163807.221000", "163807.224000", "163807.227000", "163807.230000", "163807.237000", "163807.239000", "163807.242000", "163807.245000", "163807.248000", "163807.251000", "163807.254000", "163807.257000", "163807.260000", "163807.263000", "163807.266000", "163807.269000", "163807.272000", "163807.275000", "163807.278000", "163807.281000", "163807.284000", "163807.287000", "163847.206000", "163847.209000", "163847.212000", "163847.215000", "163847.218000", "163847.221000", "163847.224000", "163847.227000", "163847.230000", "163847.233000", "163847.236000", "163847.239000", "163847.242000", "163847.244000", "163847.247000", "163847.250000", "163847.253000", "163847.256000", "163847.259000", "163847.262000", "163847.265000", "163847.268000", "163847.271000", "163847.274000", "163847.277000", "163847.280000", "163847.283000", "163927.206000", "163927.209000", "163927.212000", "163927.215000", "163927.218000", "163927.221000", "163927.224000", "163927.227000", "163927.230000", "163927.233000", "163927.236000", "163927.255000", "163927.259000", "163927.261000", "163927.264000", "163927.267000", "163927.270000", "163927.273000", "163927.276000", "163927.279000", "163927.282000", "163927.285000", "163927.288000", "163927.291000", "163927.294000", "163927.297000", "163927.300000", "163947.206000", "163947.209000", "163947.212000", "163947.215000", "163947.218000", "163947.221000", "163947.224000", "163947.227000", "163947.230000", "163947.233000", "163947.236000", "163947.239000", "163947.242000", "164027.206000", "164027.209000", "164027.212000", "164027.215000", "164027.218000", "164027.221000", "164027.224000", "164027.227000", "164027.230000", "164027.233000", "164027.236000", "164027.239000", "164027.242000", "164027.244000", "164027.247000", "164027.250000", "164027.253000", "164027.256000", "164027.259000", "164027.262000", "164027.265000", "164027.268000", "164027.271000", "164027.274000", "164027.277000", "164027.280000", "164027.283000", "164107.206000", "164107.209000", "164107.212000", "164107.215000", "164107.218000", "164107.221000", "164107.224000", "164107.227000", "164107.230000", "164107.233000", "164107.236000", "164107.239000", "164107.242000", "164107.245000", "164107.248000", "164107.251000", "164107.254000", "164107.257000", "164107.260000", "164107.262000", "164107.265000", "164107.268000", "164107.271000", "164107.274000", "164107.277000", "164107.280000", "164107.283000", "164147.206000", "164147.209000", "164147.212000", "164147.215000", "164147.218000", "164147.221000", "164147.224000", "164147.227000", "164147.230000", "164147.233000", "164147.236000", "164147.239000", "164147.242000", "164147.245000", "164147.248000", "164147.251000", "164147.254000", "164147.257000", "164147.260000", "164147.263000", "164147.265000", "164147.268000", "164147.271000", "164147.274000", "164147.277000", "164147.280000", "164147.283000", "164227.206000", "164227.211000", "164227.214000", "164227.217000", "164227.220000", "164227.224000", "164227.227000", "164227.230000", "164227.233000", "164227.236000", "164227.239000", "164227.242000", "164227.245000", "164227.247000", "164227.250000", "164227.253000", "164227.256000", "164227.259000", "164227.262000", "164227.265000", "164227.268000", "164227.271000", "164227.274000", "164227.277000", "164227.280000", "164227.283000", "164307.206000", "164307.209000", "164307.212000", "164307.215000", "164307.218000", "164307.221000", "164307.224000", "164307.227000", "164307.230000", "164307.233000", "164307.236000", "164307.239000", "164307.242000", "164307.245000", "164307.248000", "164307.251000", "164307.254000", "164307.257000", "164307.260000", "164307.262000", "164307.265000", "164307.268000", "164307.271000", "164307.274000", "164307.277000", "164307.280000", "164307.283000", "164347.206000", "164347.209000", "164347.212000", "164347.215000", "164347.218000", "164347.221000", "164347.232000", "164347.235000", "164347.238000", "164347.241000", "164347.244000", "164347.247000", "164347.250000", "164347.253000", "164347.256000", "164347.259000", "164347.262000", "164347.265000", "164347.268000", "164347.270000", "164347.273000", "164347.284000", "164347.286000", "164347.289000", "164347.292000", "164347.295000", "164347.298000", "164426.475000", "164426.478000", "164426.481000", "164426.484000", "164426.487000", "164426.490000", "164426.493000", "164426.496000", "164426.500000", "164426.503000", "164426.506000", "164426.509000", "164426.512000", "164426.515000", "164426.518000", "164426.521000", "164426.524000", "164426.527000", "164426.530000", "164426.533000", "164426.536000", "164426.539000", "164426.542000", "164426.545000", "164426.548000", "164426.550000", "164426.553000"],
