{
  "AcquisitionMatrixPE": 104,
  "AcquisitionNumber": 1,
  "AcquisitionTime": "16:45:57.752500",
  "BandwidthPerPixelPhaseEncode": 17.17,
  "BaseResolution": 104,
  "BodyPartExamined": "BRAIN",
  "CoilCombinationMethod": "Sum of Squares",
  "ConsistencyInfo": "N4_VE11C_LATEST_20160120",
  "ConversionSoftware": "dcm2niix",
  "ConversionSoftwareVersion": "v1.0.20211006",
  "DerivedVendorReportedEchoSpacing": 0.000560011,
  "DeviceSerialNumber": "167006",
  "DwellTime": 2.1e-06,
  "EchoTime": 0.037,
  "EchoTrainLength": 104,
  "EffectiveEchoSpacing": 0.000560011,
  "FlipAngle": 52,
  "HeudiconvVersion": "0.11.3.post9+gc939bf8",
  "ImageComments": "Unaliased MB4/PE3/LB",
  "ImageOrientationPatientDICOM": [0.998199, -0.057987, -0.0153881, 0.0496933, 0.942859, -0.329465],
  "ImageOrientationText": "Tra>Cor(-19.2)>Sag(-1.9)",
  "ImageType": [
    "ORIGINAL",
    "PRIMARY",
    "M",
    "MB",
    "ND",
    "MOSAIC"
],
  "ImagingFrequency": 123.259,
  "InPlanePhaseEncodingDirectionDICOM": "COL",
  "InstitutionAddress": "Chemin Queen-Mary 4565,Montreal,District,CA,H3W 1W5",
  "InstitutionName": "IUGM",
  "InstitutionalDepartmentName": "Department",
  "MRAcquisitionType": "2D",
  "MagneticFieldStrength": 3,
  "Manufacturer": "Siemens",
  "ManufacturersModelName": "Prisma_fit",
  "MatrixCoilMode": "SENSE",
  "Modality": "MR",
  "MultibandAccelerationFactor": 4,
  "PartialFourier": 1,
  "PatientPosition": "HFS",
  "PercentPhaseFOV": 100,
  "PercentSampling": 100,
  "PhaseEncodingDirection": "j",
  "PhaseEncodingSteps": 104,
  "PhaseResolution": 1,
  "PixelBandwidth": 2290,
  "ProcedureStepDescription": "video^friends",
  "ProtocolName": "func_task-friends-s06e08b",
  "PulseSequenceDetails": "%CustomerSeq%\\cmrr_mbep2d_bold",
  "ReceiveCoilActiveElements": "HC1-7;NC1,2",
  "ReceiveCoilName": "HeadNeck_64",
  "ReconMatrixPE": 104,
  "RepetitionTime": 1.49,
  "SAR": 0.0298643,
  "ScanOptions": "FS",
  "ScanningSequence": "EP",
  "SequenceName": "epfid2d1_104",
  "SequenceVariant": "SK\\SS",
  "SeriesDescription": "func_task-friends-s06e08b",
  "SeriesNumber": 23,
  "ShimSetting": [621, -7259, -8799, 593, -8, -207, -30, -13],
  "SliceThickness": 2,
  "SliceTiming": [0, 0.7825, 0.0975, 0.88, 0.195, 0.98, 0.2925, 1.0775, 0.39, 1.175, 0.49, 1.2725, 0.5875, 1.37, 0.685, 0, 0.7825, 0.0975, 0.88, 0.195, 0.98, 0.2925, 1.0775, 0.39, 1.175, 0.49, 1.2725, 0.5875, 1.37, 0.685, 0, 0.7825, 0.0975, 0.88, 0.195, 0.98, 0.2925, 1.0775, 0.39, 1.175, 0.49, 1.2725, 0.5875, 1.37, 0.685, 0, 0.7825, 0.0975, 0.88, 0.195, 0.98, 0.2925, 1.0775, 0.39, 1.175, 0.49, 1.2725, 0.5875, 1.37, 0.685],
  "SoftwareVersions": "syngo MR E11",
  "SpacingBetweenSlices": 2,
  "StationName": "MRC35049",
  "TaskName": "s06e08b",
  "TotalReadoutTime": 0.0576811,
  "TxRefAmp": 217.449,
  "WipMemBlock": "5e5ec7d6-5205-4a82-965f-854afeee887f||Sequence: R016 ve11c/master r/e634e98; Dec 19 2017 11:00:25 by eja",
  "dcmmeta_affine": [
    [-1.9963974952697754, 0.09938652813434601, -0.0672270655632019, 98.56917572021484],
    [0.115974061191082, 1.8857182264328003, -0.6562138795852661, -80.00045776367188],
    [-0.030776245519518852, 0.6589301228523254, 1.8880847692489624, -59.050838470458984],
    [0.0, 0.0, 0.0, 1.0]
],
  "dcmmeta_reorient_transform": [
    [0.0, -1.0, 0.0, 103.0],
    [1.0, 0.0, 0.0, 0.0],
    [0.0, 0.0, 1.0, 0.0],
    [0.0, 0.0, 0.0, 1.0]
],
  "dcmmeta_shape": [104, 104, 60, 472],
  "dcmmeta_slice_dim": 2,
  "dcmmeta_version": 0.6,
  "global": {
    "const": {
      "AcquisitionMatrix": [104, 0, 0, 104],
      "AngioFlag": "N",
      "BitsAllocated": 16,
      "BitsStored": 16,
      "BodyPartExamined": "BRAIN",
      "Columns": 832,
      "EchoNumbers": 1,
      "EchoTime": 37.0,
      "EchoTrainLength": 104,
      "FlipAngle": 52.0,
      "HighBit": 15,
      "ImageOrientationPatient": [0.9981987327057, -0.0579870305354, -0.0153881225114, 0.0496932632805, 0.94285913314436, -0.3294650734612],
      "ImagePositionPatient": [-871.67135878669, -758.41541737356, 259.87209221877],
      "ImageType": [
        "ORIGINAL",
        "PRIMARY",
        "M",
        "MB",
        "ND",
        "MOSAIC"
],
      "ImagedNucleus": "1H",
      "ImagingFrequency": 123.258796,
      "InPlanePhaseEncodingDirection": "COL",
      "MRAcquisitionType": "2D",
      "MagneticFieldStrength": 3.0,
      "Manufacturer": "SIEMENS",
      "ManufacturerModelName": "Prisma_fit",
      "Modality": "MR",
      "NumberOfAverages": 1.0,
      "NumberOfPhaseEncodingSteps": 104,
      "PercentPhaseFieldOfView": 100.0,
      "PercentSampling": 100.0,
      "PerformedProcedureStepStartTime": "150205.294000",
      "PhotometricInterpretation": "MONOCHROME2",
      "PixelBandwidth": 2290.0,
      "PixelRepresentation": 0,
      "PixelSpacing": [2.0, 2.0],
      "ProtocolName": "func_task-friends-s06e08b",
      "RepetitionTime": 1490.0,
      "Rows": 832,
      "SAR": 0.02986425590863,
      "SamplesPerPixel": 1,
      "ScanOptions": "FS",
      "ScanningSequence": "EP",
      "SequenceName": "epfid2d1_104",
      "SequenceVariant": [
        "SK",
        "SS"
],
      "SeriesDescription": "func_task-friends-s06e08b",
      "SeriesNumber": 23,
      "SeriesTime": "164717.875000",
      "SliceLocation": -32.811048106431,
      "SliceThickness": 2.0,
      "SmallestImagePixelValue": 0,
      "SoftwareVersions": "syngo MR E11",
      "SpacingBetweenSlices": 2.0000000376104,
      "SpecificCharacterSet": "ISO_IR 100",
      "StudyID": "1",
      "StudyTime": "150205.132000",
      "TransmitCoilName": "Body",
      "VariableFlipAngleFlag": "N",
      "WindowCenterWidthExplanation": "Algo1",
      "dBdt": 0.0},
    "slices": {}
  },
  "time": {
    "samples": {
      "AcquisitionNumber": [1, 2, 3, 4, 5, 6, 7, 8, 9, 10, 11, 12, 13, 14, 15, 16, 17, 18, 19, 20, 21, 22, 23, 24, 25, 26, 27, 28, 29, 30, 31, 32, 33, 34, 35, 36, 37, 38, 39, 40, 41, 42, 43, 44, 45, 46, 47, 48, 49, 50, 51, 52, 53, 54, 55, 56, 57, 58, 59, 60, 61, 62, 63, 64, 65, 66, 67, 68, 69, 70, 71, 72, 73, 74, 75, 76, 77, 78, 79, 80, 81, 82, 83, 84, 85, 86, 87, 88, 89, 90, 91, 92, 93, 94, 95, 96, 97, 98, 99, 100, 101, 102, 103, 104, 105, 106, 107, 108, 109, 110, 111, 112, 113, 114, 115, 116, 117, 118, 119, 120, 121, 122, 123, 124, 125, 126, 127, 128, 129, 130, 131, 132, 133, 134, 135, 136, 137, 138, 139, 140, 141, 142, 143, 144, 145, 146, 147, 148, 149, 150, 151, 152, 153, 154, 155, 156, 157, 158, 159, 160, 161, 162, 163, 164, 165, 166, 167, 168, 169, 170, 171, 172, 173, 174, 175, 176, 177, 178, 179, 180, 181, 182, 183, 184, 185, 186, 187, 188, 189, 190, 191, 192, 193, 194, 195, 196, 197, 198, 199, 200, 201, 202, 203, 204, 205, 206, 207, 208, 209, 210, 211, 212, 213, 214, 215, 216, 217, 218, 219, 220, 221, 222, 223, 224, 225, 226, 227, 228, 229, 230, 231, 232, 233, 234, 235, 236, 237, 238, 239, 240, 241, 242, 243, 244, 245, 246, 247, 248, 249, 250, 251, 252, 253, 254, 255, 256, 257, 258, 259, 260, 261, 262, 263, 264, 265, 266, 267, 268, 269, 270, 271, 272, 273, 274, 275, 276, 277, 278, 279, 280, 281, 282, 283, 284, 285, 286, 287, 288, 289, 290, 291, 292, 293, 294, 295, 296, 297, 298, 299, 300, 301, 302, 303, 304, 305, 306, 307, 308, 309, 310, 311, 312, 313, 314, 315, 316, 317, 318, 319, 320, 321, 322, 323, 324, 325, 326, 327, 328, 329, 330, 331, 332, 333, 334, 335, 336, 337, 338, 339, 340, 341, 342, 343, 344, 345, 346, 347, 348, 349, 350, 351, 352, 353, 354, 355, 356, 357, 358, 359, 360, 361, 362, 363, 364, 365, 366, 367, 368, 369, 370, 371, 372, 373, 374, 375, 376, 377, 378, 379, 380, 381, 382, 383, 384, 385, 386, 387, 388, 389, 390, 391, 392, 393, 394, 395, 396, 397, 398, 399, 400, 401, 402, 403, 404, 405, 406, 407, 408, 409, 410, 411, 412, 413, 414, 415, 416, 417, 418, 419, 420, 421, 422, 423, 424, 425, 426, 427, 428, 429, 430, 431, 432, 433, 434, 435, 436, 437, 438, 439, 440, 441, 442, 443, 444, 445, 446, 447, 448, 449, 450, 451, 452, 453, 454, 455, 456, 457, 458, 459, 460, 461, 462, 463, 464, 465, 466, 467, 468, 469, 470, 471, 472],
      "AcquisitionTime": ["164557.752500", "164559.242500", "164600.732500", "164602.222500", "164603.712500", "164605.202500", "164606.692500", "164608.182500", "164609.672500", "164611.162500", "164612.652500", "164614.142500", "164615.632500", "164617.122500", "164618.612500", "164620.102500", "164621.592500", "164623.082500", "164624.572500", "164626.062500", "164627.552500", "164629.042500", "164630.532500", "164632.022500", "164633.512500", "164635.002500", "164636.492500", "164637.982500", "164639.472500", "164640.962500", "164642.452500", "164643.942500", "164645.432500", "164646.922500", "164648.412500", "164649.902500", "164651.392500", "164652.882500", "164654.372500", "164655.862500", "164657.352500", "164658.842500", "164700.332500", "164701.822500", "164703.312500", "164704.802500", "164706.292500", "164707.782500", "164709.272500", "164710.762500", "164712.252500", "164713.742500", "164715.232500", "164716.722500", "164718.212500", "164719.702500", "164721.192500", "164722.682500", "164724.172500", "164725.662500", "164727.152500", "164728.642500", "164730.132500", "164731.622500", "164733.112500", "164734.602500", "164736.092500", "164737.582500", "164739.072500", "164740.562500", "164742.052500", "164743.542500", "164745.032500", "164746.522500", "164748.012500", "164749.502500", "164750.992500", "164752.482500", "164753.972500", "164755.462500", "164756.952500", "164758.442500", "164759.932500", "164801.422500", "164802.912500", "164804.402500", "164805.892500", "164807.382500", "164808.872500", "164810.362500", "164811.852500", "164813.342500", "164814.832500", "164816.322500", "164817.812500", "164819.302500", "164820.792500", "164822.282500", "164823.772500", "164825.262500", "164826.752500", "164828.242500", "164829.732500", "164831.222500", "164832.712500", "164834.202500", "164835.692500", "164837.182500", "164838.672500", "164840.162500", "164841.652500", "164843.142500", "164844.632500", "164846.122500", "164847.612500", "164849.102500", "164850.592500", "164852.082500", "164853.572500", "164855.062500", "164856.552500", "164858.042500", "164859.532500", "164901.022500", "164902.512500", "164904.002500", "164905.492500", "164906.982500", "164908.472500", "164909.962500", "164911.452500", "164912.942500", "164914.432500", "164915.922500", "164917.412500", "164918.902500", "164920.392500", "164921.882500", "164923.372500", "164924.862500", "164926.352500", "164927.842500", "164929.332500", "164930.822500", "164932.312500", "164933.802500", "164935.292500", "164936.782500", "164938.272500", "164939.762500", "164941.252500", "164942.742500", "164944.232500", "164945.722500", "164947.212500", "164948.702500", "164950.192500", "164951.682500", "164953.172500", "164954.662500", "164956.152500", "164957.642500", "164959.132500", "165000.622500", "165002.112500", "165003.602500", "165005.092500", "165006.582500", "165008.072500", "165009.562500", "165011.052500", "165012.542500", "165014.032500", "165015.522500", "165017.012500", "165018.502500", "165019.992500", "165021.482500", "165022.972500", "165024.462500", "165025.952500", "165027.442500", "165028.932500", "165030.422500", "165031.912500", "165033.402500", "165034.892500", "165036.382500", "165037.872500", "165039.362500", "165040.852500", "165042.342500", "165043.832500", "165045.322500", "165046.812500", "165048.302500", "165049.792500", "165051.282500", "165052.772500", "165054.262500", "165055.752500", "165057.242500", "165058.732500", "165100.222500", "165101.712500", "165103.202500", "165104.692500", "165106.182500", "165107.672500", "165109.162500", "165110.652500", "165112.142500", "165113.632500", "165115.122500", "165116.612500", "165118.102500", "165119.592500", "165121.082500", "165122.572500", "165124.062500", "165125.552500", "165127.042500", "165128.532500", "165130.022500", "165131.512500", "165133.002500", "165134.492500", "165135.982500", "165137.472500", "165138.962500", "165140.452500", "165141.942500", "165143.432500", "165144.922500", "165146.412500", "165147.902500", "165149.392500", "165150.882500", "165152.372500", "165153.862500", "165155.352500", "165156.842500", "165158.332500", "165159.822500", "165201.312500", "165202.802500", "165204.292500", "165205.782500", "165207.272500", "165208.762500", "165210.252500", "165211.742500", "165213.232500", "165214.722500", "165216.212500", "165217.702500", "165219.192500", "165220.682500", "165222.172500", "165223.662500", "165225.152500", "165226.642500", "165228.132500", "165229.622500", "165231.112500", "165232.602500", "165234.092500", "165235.582500", "165237.072500", "165238.562500", "165240.052500", "165241.542500", "165243.032500", "165244.522500", "165246.012500", "165247.502500", "165248.992500", "165250.482500", "165251.972500", "165253.462500", "165254.952500", "165256.442500", "165257.932500", "165259.422500", "165300.912500", "165302.402500", "165303.892500", "165305.382500", "165306.872500", "165308.362500", "165309.852500", "165311.342500", "165312.832500", "165314.322500", "165315.812500", "165317.302500", "165318.792500", "165320.282500", "165321.772500", "165323.262500", "165324.752500", "165326.242500", "165327.732500", "165329.222500", "165330.712500", "165332.202500", "165333.692500", "165335.182500", "165336.672500", "165338.162500", "165339.652500", "165341.142500", "165342.632500", "165344.122500", "165345.612500", "165347.102500", "165348.592500", "165350.082500", "165351.572500", "165353.062500", "165354.552500", "165356.042500", "165357.532500", "165359.022500", "165400.512500", "165402.002500", "165403.492500", "165404.982500", "165406.472500", "165407.962500", "165409.452500", "165410.942500", "165412.432500", "165413.922500", "165415.412500", "165416.902500", "165418.392500", "165419.882500", "165421.372500", "165422.862500", "165424.352500", "165425.842500", "165427.332500", "165428.822500", "165430.312500", "165431.802500", "165433.292500", "165434.782500", "165436.272500", "165437.762500", "165439.252500", "165440.742500", "165442.232500", "165443.722500", "165445.212500", "165446.702500", "165448.192500", "165449.682500", "165451.172500", "165452.662500", "165454.152500", "165455.642500", "165457.132500", "165458.622500", "165500.112500", "165501.602500", "165503.092500", "165504.582500", "165506.072500", "165507.562500", "165509.052500", "165510.542500", "165512.032500", "165513.522500", "165515.012500", "165516.502500", "165517.992500", "165519.482500", "165520.972500", "165522.462500", "165523.952500", "165525.442500", "165526.932500", "165528.422500", "165529.912500", "165531.402500", "165532.892500", "165534.382500", "165535.872500", "165537.362500", "165538.852500", "165540.342500", "165541.832500", "165543.322500", "165544.812500", "165546.302500", "165547.792500", "165549.282500", "165550.772500", "165552.262500", "165553.752500", "165555.242500", "165556.732500", "165558.222500", "165559.712500", "165601.202500", "165602.692500", "165604.182500", "165605.672500", "165607.162500", "165608.652500", "165610.142500", "165611.632500", "165613.122500", "165614.612500", "165616.102500", "165617.592500", "165619.082500", "165620.572500", "165622.062500", "165623.552500", "165625.042500", "165626.532500", "165628.022500", "165629.512500", "165631.002500", "165632.492500", "165633.982500", "165635.472500", "165636.962500", "165638.452500", "165639.942500", "165641.432500", "165642.922500", "165644.412500", "165645.902500", "165647.392500", "165648.882500", "165650.372500", "165651.862500", "165653.352500", "165654.842500", "165656.332500", "165657.822500", "165659.312500", "165700.802500", "165702.292500", "165703.782500", "165705.272500", "165706.762500", "165708.252500", "165709.742500", "165711.232500", "165712.722500", "165714.212500", "165715.702500", "165717.192500", "165718.682500", "165720.172500", "165721.662500", "165723.152500", "165724.642500", "165726.132500", "165727.622500", "165729.112500", "165730.602500", "165732.092500", "165733.582500", "165735.072500", "165736.562500", "165738.052500", "165739.542500"],
      "ContentTime": ["164717.878000", "164717.881000", "164717.884000", "164717.889000", "164717.901000", "164717.904000", "164717.907000", "164717.910000", "164717.912000", "164717.915000", "164717.918000", "164717.924000", "164717.927000", "164717.930000", "164717.933000", "164717.936000", "164717.939000", "164717.942000", "164717.945000", "164717.948000", "164717.951000", "164717.953000", "164717.956000", "164717.959000", "164717.962000", "164717.965000", "164717.968000", "164717.971000", "164737.842000", "164737.845000", "164737.848000", "164737.851000", "164737.854000", "164737.863000", "164737.866000", "164737.869000", "164737.872000", "164737.875000", "164737.878000", "164737.881000", "164737.883000", "164737.886000", "164737.889000", "164737.892000", "164737.895000", "164737.898000", "164737.901000", "164737.904000", "164757.841000", "164757.844000", "164757.847000", "164757.850000", "164757.853000", "164757.856000", "164757.859000", "164757.862000", "164757.865000", "164757.867000", "164757.870000", "164757.873000", "164757.876000", "164757.879000", "164757.882000", "164757.885000", "164757.888000", "164757.891000", "164757.894000", "164757.897000", "164817.842000", "164817.845000", "164817.848000", "164817.851000", "164817.854000", "164817.857000", "164817.860000", "164817.863000", "164817.866000", "164817.869000", "164817.871000", "164817.874000", "164817.877000", "164817.880000", "164817.883000", "164817.886000", "164817.889000", "164817.892000", "164817.895000", "164817.897000", "164857.842000", "164857.845000", "164857.848000", "164857.851000", "164857.854000", "164857.857000", "164857.860000", "164857.862000", "164857.865000", "164857.868000", "164857.871000", "164857.874000", "164857.877000", "164857.880000", "164857.883000", "164857.886000", "164857.896000", "164857.899000", "164857.902000", "164857.905000", "164857.908000", "164857.911000", "164857.914000", "164857.917000", "164857.920000", "164857.923000", "164857.925000", "164857.928000", "164857.931000", "164857.934000", "164857.937000", "164857.940000", "164937.842000", "164937.845000", "164937.848000", "164937.851000", "164937.854000", "164937.857000", "164937.860000", "164937.863000", "164937.866000", "164937.869000", "164937.872000", "164937.875000", "164937.877000", "164937.880000", "164937.883000", "164937.886000", "164937.889000", "164937.892000", "164937.895000", "164937.898000", "164937.901000", "164937.904000", "164937.922000", "164937.925000", "164937.928000", "164937.930000", "164937.933000", "165017.841000", "165017.844000", "165017.847000", "165017.850000", "165017.853000", "165017.856000", "165017.859000", "165017.862000", "165017.865000", "165017.868000", "165017.871000", "165017.874000", "165017.876000", "165017.879000", "165017.884000", "165017.887000", "165017.890000", "165017.893000", "165017.896000", "165017.899000", "165017.902000", "165017.905000", "165017.908000", "165017.911000", "165017.914000", "165017.917000", "165017.920000", "165057.842000", "165057.845000", "165057.848000", "165057.851000", "165057.854000", "165057.857000", "165057.860000", "165057.863000", "165057.866000", "165057.869000", "165057.872000", "165057.874000", "165057.877000", "165057.880000", "165057.883000", "165057.886000", "165057.889000", "165057.892000", "165057.895000", "165057.898000", "165057.901000", "165057.904000", "165057.907000", "165057.910000", "165057.913000", "165057.916000", "165057.919000", "165137.842000", "165137.845000", "165137.848000", "165137.851000", "165137.854000", "165137.857000", "165137.860000", "165137.863000", "165137.866000", "165137.869000", "165137.873000", "165137.885000", "165137.888000", "165137.891000", "165137.894000", "165137.897000", "165137.900000", "165137.903000", "165137.906000", "165137.908000", "165137.912000", "165137.914000", "165137.917000", "165137.920000", "165137.923000", "165137.926000", "165217.842000", "165217.845000", "165217.848000", "165217.851000", "165217.854000", "165217.857000", "165217.860000", "165217.863000", "165217.866000", "165217.869000", "165217.872000", "165217.875000", "165217.878000", "165217.881000", "165217.884000", "165217.887000", "165217.889000", "165217.892000", "165217.895000", "165217.898000", "165217.901000", "165217.904000", "165217.907000", "165217.910000", "165217.913000", "165217.916000", "165217.919000", "165257.842000", "165257.845000", "165257.848000", "165257.851000", "165257.854000", "165257.857000", "165257.860000", "165257.863000", "165257.866000", "165257.869000", "165257.872000", "165257.875000", "165257.877000", "165257.880000", "165257.883000", "165257.886000", "165257.889000", "165257.892000", "165257.895000", "165257.898000", "165257.901000", "165257.904000", "165257.907000", "165257.910000", "165257.913000", "165257.916000", "165257.919000", "165337.842000", "165337.845000", "165337.848000", "165337.851000", "165337.854000", "165337.857000", "165337.860000", "165337.863000", "165337.866000", "165337.869000", "165337.872000", "165337.875000", "165337.878000", "165337.881000", "165337.884000", "165337.887000", "165337.890000", "165337.892000", "165337.895000", "165337.898000", "165337.901000", "165337.904000", "165337.907000", "165337.910000", "165337.913000", "165337.916000", "165337.919000", "165417.842000", "165417.845000", "165417.848000", "165417.851000", "165417.854000", "165417.857000", "165417.860000", "165417.863000", "165417.866000", "165417.869000", "165417.871000", "165417.874000", "165417.877000", "165417.880000", "165417.883000", "165417.886000", "165417.889000", "165417.892000", "165417.895000", "165417.898000", "165417.901000", "165417.904000", "165417.907000", "165417.910000", "165417.913000", "165417.916000", "165417.919000", "165457.841000", "165457.844000", "165457.847000", "165457.850000", "165457.853000", "165457.856000", "165457.859000", "165457.862000", "165457.865000", "165457.868000", "165457.871000", "165457.873000", "165457.876000", "165457.879000", "165457.882000", "165457.885000", "165457.888000", "165457.891000", "165457.894000", "165457.897000", "165457.900000", "165457.903000", "165457.906000", "165457.909000", "165457.912000", "165457.915000", "165457.918000", "165537.842000", "165537.845000", "165537.848000", "165537.851000", "165537.854000", "165537.857000", "165537.860000", "165537.863000", "165537.866000", "165537.869000", "165537.872000", "165537.875000", "165537.877000", "165537.880000", "165537.884000", "165537.888000", "165537.891000", "165537.894000", "165537.897000", "165537.900000", "165537.903000", "165537.906000", "165537.910000", "165537.913000", "165537.915000", "165537.919000", "165617.842000", "165617.845000", "165617.848000", "165617.851000", "165617.854000", "165617.857000", "165617.860000", "165617.863000", "165617.866000", "165617.869000", "165617.872000", "165617.875000", "165617.878000", "165617.881000", "165617.884000", "165617.886000", "165617.889000", "165617.892000", "165617.895000", "165617.898000", "165617.901000", "165617.904000", "165617.907000", "165617.910000", "165617.913000", "165617.916000", "165617.919000", "165657.842000", "165657.845000", "165657.848000", "165657.851000", "165657.854000", "165657.857000", "165657.860000", "165657.863000", "165657.866000", "165657.869000", "165657.872000", "165657.875000", "165657.877000", "165657.880000", "165657.883000", "165657.886000", "165657.889000", "165657.892000", "165657.895000", "165657.898000", "165657.901000", "165657.904000", "165657.907000", "165657.910000", "165657.913000", "165657.916000", "165657.919000", "165737.842000", "165737.845000", "165737.848000", "165737.851000", "165737.854000", "165737.857000", "165737.860000", "165737.863000", "165737.866000", "165737.869000", "165737.872000", "165737.875000", "165737.878000", "165737.881000", "165737.884000", "165737.887000", "165737.890000", "165737.892000", "165737.895000", "165737.898000", "165737.901000", "165737.904000", "165737.907000", "165737.910000", "165737.913000", "165737.916000", "165737.919000", "165741.606000", "165741.609000", "165741.612000"],
