{
  "AcquisitionMatrixPE": 104,
  "AcquisitionNumber": 1,
  "AcquisitionTime": "16:12:16.652500",
  "BandwidthPerPixelPhaseEncode": 17.17,
  "BaseResolution": 104,
  "BodyPartExamined": "BRAIN",
  "CoilString": "HC1-7;NC1_2",
  "ConsistencyInfo": "N4_VE11C_LATEST_20160120",
  "ConversionSoftware": "dcm2niix",
  "ConversionSoftwareVersion": "v1.0.20190902",
  "DerivedVendorReportedEchoSpacing": 0.000560011,
  "DeviceSerialNumber": "167006",
  "DwellTime": 2.1e-06,
  "EchoTime": 0.037,
  "EchoTrainLength": 104,
  "EffectiveEchoSpacing": 0.000560011,
  "FlipAngle": 52,
  "HeudiconvVersion": "0.10.0",
  "ImageComments": "Unaliased_MB4_PE3_LB",
  "ImageOrientationPatientDICOM": [0.999398, -0.0195001, -0.0287005, 0.00872161, 0.941762, -0.336166],
  "ImageType": [
    "ORIGINAL",
    "PRIMARY",
    "M",
    "MB",
    "ND",
    "MOSAIC"
],
  "ImagingFrequency": 123.259,
  "InPlanePhaseEncodingDirectionDICOM": "COL",
  "InstitutionAddress": "Chemin_Queen-Mary_4565_Montreal_District_CA_H3W_1W5",
  "InstitutionName": "IUGM",
  "InstitutionalDepartmentName": "Department",
  "MRAcquisitionType": "2D",
  "MagneticFieldStrength": 3,
  "Manufacturer": "Siemens",
  "ManufacturersModelName": "Prisma_fit",
  "Modality": "MR",
  "MultibandAccelerationFactor": 4,
  "PartialFourier": 1,
  "PatientPosition": "HFS",
  "PercentPhaseFOV": 100,
  "PhaseEncodingDirection": "j",
  "PhaseEncodingSteps": 104,
  "PhaseResolution": 1,
  "PixelBandwidth": 2290,
  "ProcedureStepDescription": "video_friends",
  "ProtocolName": "func_task-friends-s02e04b",
  "PulseSequenceDetails": "%CustomerSeq%_cmrr_mbep2d_bold",
  "ReceiveCoilActiveElements": "HC1-7;NC1,2",
  "ReceiveCoilName": "HeadNeck_64",
  "ReconMatrixPE": 104,
  "RepetitionTime": 1.49,
  "SAR": 0.0447461,
  "ScanOptions": "FS",
  "ScanningSequence": "EP",
  "SequenceName": "epfid2d1_104",
  "SequenceVariant": "SK_SS",
  "SeriesDescription": "func_task-friends-s02e04b",
  "SeriesNumber": 9,
  "ShimSetting": [619, -7251, -8809, 593, -18, -166, -112, -23],
  "SliceThickness": 2,
  "SliceTiming": [0, 0.785, 0.1, 0.8825, 0.1975, 0.98, 0.295, 1.08, 0.3925, 1.1775, 0.49, 1.275, 0.59, 1.3725, 0.6875, 0, 0.785, 0.1, 0.8825, 0.1975, 0.98, 0.295, 1.08, 0.3925, 1.1775, 0.49, 1.275, 0.59, 1.3725, 0.6875, 0, 0.785, 0.1, 0.8825, 0.1975, 0.98, 0.295, 1.08, 0.3925, 1.1775, 0.49, 1.275, 0.59, 1.3725, 0.6875, 0, 0.785, 0.1, 0.8825, 0.1975, 0.98, 0.295, 1.08, 0.3925, 1.1775, 0.49, 1.275, 0.59, 1.3725, 0.6875],
  "SoftwareVersions": "syngo_MR_E11",
  "SpacingBetweenSlices": 2,
  "StationName": "MRC35049",
  "TaskName": "s02e04b",
  "TotalReadoutTime": 0.0576811,
  "TxRefAmp": 250.909,
  "WipMemBlock": "98b98a3f-3cb4-4414-b439-82c514965cb6||Sequence: R016 ve11c/master r/e634e98; Dec 19 2017 11:00:25 by eja",
  "dcmmeta_affine": [
    [-1.9987956285476685, 0.017443224787712097, -0.0671687126159668, 102.31844329833984],
    [0.03900028020143509, 1.883524775505066, -0.6714262962341309, -75.85941314697266],
    [-0.05740104988217354, 0.6723318099975586, 1.8827307224273682, -58.30279541015625],
    [0.0, 0.0, 0.0, 1.0]
],
  "dcmmeta_reorient_transform": [
    [0.0, -1.0, 0.0, 103.0],
    [1.0, 0.0, 0.0, 0.0],
    [0.0, 0.0, 1.0, 0.0],
    [0.0, 0.0, 0.0, 1.0]
],
  "dcmmeta_shape": [104, 104, 60, 454],
  "dcmmeta_slice_dim": 2,
  "dcmmeta_version": 0.6,
  "global": {
    "const": {
      "AcquisitionMatrix": [104, 0, 0, 104],
      "AngioFlag": "N",
      "BitsAllocated": 16,
      "BitsStored": 16,
      "BodyPartExamined": "BRAIN",
      "Columns": 832,
      "EchoNumbers": 1,
      "EchoTime": 37.0,
      "EchoTrainLength": 104,
      "FlipAngle": 52.0,
      "HighBit": 15,
      "ImageOrientationPatient": [0.99939783090657, -0.0195001394422, -0.0287005250995, 0.00872161245078, 0.94176240427159, -0.3361658926436],
      "ImagePositionPatient": [-838.02605032713, -789.55057118984, 276.57012985644],
      "ImageType": [
        "ORIGINAL",
        "PRIMARY",
        "M",
        "MB",
        "ND",
        "MOSAIC"
],
      "ImagedNucleus": "1H",
      "ImagingFrequency": 123.258917,
      "InPlanePhaseEncodingDirection": "COL",
      "MRAcquisitionType": "2D",
      "MagneticFieldStrength": 3.0,
      "Manufacturer": "SIEMENS",
      "ManufacturerModelName": "Prisma_fit",
      "Modality": "MR",
      "NumberOfAverages": 1.0,
      "NumberOfPhaseEncodingSteps": 104,
      "PercentPhaseFieldOfView": 100.0,
      "PercentSampling": 100.0,
      "PerformedProcedureStepStartTime": "160735.048000",
      "PhotometricInterpretation": "MONOCHROME2",
      "PixelBandwidth": 2290.0,
      "PixelRepresentation": 0,
      "PixelSpacing": [2.0, 2.0],
      "ProtocolName": "func_task-friends-s02e04b",
      "RepetitionTime": 1490.0,
      "Rows": 832,
      "SAR": 0.04474610860279,
      "SamplesPerPixel": 1,
      "ScanOptions": "FS",
      "ScanningSequence": "EP",
      "SequenceName": "epfid2d1_104",
      "SequenceVariant": [
        "SK",
        "SS"
],
      "SeriesDescription": "func_task-friends-s02e04b",
      "SeriesNumber": 9,
      "SeriesTime": "161325.154000",
      "SliceLocation": -32.853530431711,
      "SliceThickness": 2.0,
      "SmallestImagePixelValue": 0,
      "SoftwareVersions": "syngo MR E11",
      "SpacingBetweenSlices": 1.9999999677439,
      "SpecificCharacterSet": "ISO_IR 100",
      "StudyID": "1",
      "StudyTime": "160734.970000",
      "TransmitCoilName": "Body",
      "VariableFlipAngleFlag": "N",
      "WindowCenterWidthExplanation": "Algo1",
      "dBdt": 0.0},
    "slices": {}
  },
  "time": {
    "samples": {
      "AcquisitionNumber": [1, 2, 3, 4, 5, 6, 7, 8, 9, 10, 11, 12, 13, 14, 15, 16, 17, 18, 19, 20, 21, 22, 23, 24, 25, 26, 27, 28, 29, 30, 31, 32, 33, 34, 35, 36, 37, 38, 39, 40, 41, 42, 43, 44, 45, 46, 47, 48, 49, 50, 51, 52, 53, 54, 55, 56, 57, 58, 59, 60, 61, 62, 63, 64, 65, 66, 67, 68, 69, 70, 71, 72, 73, 74, 75, 76, 77, 78, 79, 80, 81, 82, 83, 84, 85, 86, 87, 88, 89, 90, 91, 92, 93, 94, 95, 96, 97, 98, 99, 100, 101, 102, 103, 104, 105, 106, 107, 108, 109, 110, 111, 112, 113, 114, 115, 116, 117, 118, 119, 120, 121, 122, 123, 124, 125, 126, 127, 128, 129, 130, 131, 132, 133, 134, 135, 136, 137, 138, 139, 140, 141, 142, 143, 144, 145, 146, 147, 148, 149, 150, 151, 152, 153, 154, 155, 156, 157, 158, 159, 160, 161, 162, 163, 164, 165, 166, 167, 168, 169, 170, 171, 172, 173, 174, 175, 176, 177, 178, 179, 180, 181, 182, 183, 184, 185, 186, 187, 188, 189, 190, 191, 192, 193, 194, 195, 196, 197, 198, 199, 200, 201, 202, 203, 204, 205, 206, 207, 208, 209, 210, 211, 212, 213, 214, 215, 216, 217, 218, 219, 220, 221, 222, 223, 224, 225, 226, 227, 228, 229, 230, 231, 232, 233, 234, 235, 236, 237, 238, 239, 240, 241, 242, 243, 244, 245, 246, 247, 248, 249, 250, 251, 252, 253, 254, 255, 256, 257, 258, 259, 260, 261, 262, 263, 264, 265, 266, 267, 268, 269, 270, 271, 272, 273, 274, 275, 276, 277, 278, 279, 280, 281, 282, 283, 284, 285, 286, 287, 288, 289, 290, 291, 292, 293, 294, 295, 296, 297, 298, 299, 300, 301, 302, 303, 304, 305, 306, 307, 308, 309, 310, 311, 312, 313, 314, 315, 316, 317, 318, 319, 320, 321, 322, 323, 324, 325, 326, 327, 328, 329, 330, 331, 332, 333, 334, 335, 336, 337, 338, 339, 340, 341, 342, 343, 344, 345, 346, 347, 348, 349, 350, 351, 352, 353, 354, 355, 356, 357, 358, 359, 360, 361, 362, 363, 364, 365, 366, 367, 368, 369, 370, 371, 372, 373, 374, 375, 376, 377, 378, 379, 380, 381, 382, 383, 384, 385, 386, 387, 388, 389, 390, 391, 392, 393, 394, 395, 396, 397, 398, 399, 400, 401, 402, 403, 404, 405, 406, 407, 408, 409, 410, 411, 412, 413, 414, 415, 416, 417, 418, 419, 420, 421, 422, 423, 424, 425, 426, 427, 428, 429, 430, 431, 432, 433, 434, 435, 436, 437, 438, 439, 440, 441, 442, 443, 444, 445, 446, 447, 448, 449, 450, 451, 452, 453, 454],
      "AcquisitionTime": ["161216.652500", "161218.142500", "161219.632500", "161221.122500", "161222.612500", "161224.102500", "161225.592500", "161227.082500", "161228.572500", "161230.062500", "161231.552500", "161233.042500", "161234.532500", "161236.022500", "161237.512500", "161239.002500", "161240.492500", "161241.982500", "161243.472500", "161244.962500", "161246.452500", "161247.942500", "161249.432500", "161250.922500", "161252.412500", "161253.902500", "161255.392500", "161256.882500", "161258.372500", "161259.862500", "161301.352500", "161302.842500", "161304.332500", "161305.822500", "161307.312500", "161308.802500", "161310.292500", "161311.782500", "161313.272500", "161314.762500", "161316.252500", "161317.742500", "161319.232500", "161320.722500", "161322.212500", "161323.702500", "161325.192500", "161326.682500", "161328.172500", "161329.662500", "161331.152500", "161332.642500", "161334.132500", "161335.622500", "161337.112500", "161338.602500", "161340.092500", "161341.582500", "161343.072500", "161344.562500", "161346.052500", "161347.542500", "161349.032500", "161350.522500", "161352.012500", "161353.502500", "161354.992500", "161356.482500", "161357.972500", "161359.462500", "161400.952500", "161402.442500", "161403.932500", "161405.422500", "161406.912500", "161408.402500", "161409.892500", "161411.382500", "161412.872500", "161414.362500", "161415.852500", "161417.342500", "161418.832500", "161420.322500", "161421.812500", "161423.302500", "161424.792500", "161426.282500", "161427.772500", "161429.262500", "161430.752500", "161432.242500", "161433.732500", "161435.222500", "161436.712500", "161438.202500", "161439.692500", "161441.182500", "161442.672500", "161444.162500", "161445.652500", "161447.142500", "161448.632500", "161450.122500", "161451.612500", "161453.102500", "161454.592500", "161456.082500", "161457.572500", "161459.062500", "161500.552500", "161502.042500", "161503.532500", "161505.022500", "161506.512500", "161508.002500", "161509.492500", "161510.982500", "161512.472500", "161513.962500", "161515.452500", "161516.942500", "161518.432500", "161519.922500", "161521.412500", "161522.902500", "161524.392500", "161525.882500", "161527.372500", "161528.862500", "161530.352500", "161531.842500", "161533.332500", "161534.822500", "161536.312500", "161537.802500", "161539.292500", "161540.782500", "161542.272500", "161543.762500", "161545.252500", "161546.742500", "161548.232500", "161549.722500", "161551.212500", "161552.702500", "161554.192500", "161555.682500", "161557.172500", "161558.662500", "161600.152500", "161601.642500", "161603.132500", "161604.622500", "161606.112500", "161607.602500", "161609.092500", "161610.582500", "161612.072500", "161613.562500", "161615.052500", "161616.542500", "161618.032500", "161619.522500", "161621.012500", "161622.502500", "161623.992500", "161625.482500", "161626.972500", "161628.462500", "161629.952500", "161631.442500", "161632.932500", "161634.422500", "161635.912500", "161637.402500", "161638.892500", "161640.382500", "161641.872500", "161643.362500", "161644.852500", "161646.342500", "161647.832500", "161649.322500", "161650.812500", "161652.302500", "161653.792500", "161655.282500", "161656.772500", "161658.262500", "161659.752500", "161701.242500", "161702.732500", "161704.222500", "161705.712500", "161707.202500", "161708.692500", "161710.182500", "161711.672500", "161713.162500", "161714.652500", "161716.142500", "161717.632500", "161719.122500", "161720.612500", "161722.102500", "161723.592500", "161725.082500", "161726.572500", "161728.062500", "161729.552500", "161731.042500", "161732.532500", "161734.022500", "161735.512500", "161737.002500", "161738.492500", "161739.982500", "161741.472500", "161742.962500", "161744.452500", "161745.942500", "161747.432500", "161748.922500", "161750.412500", "161751.902500", "161753.392500", "161754.882500", "161756.372500", "161757.862500", "161759.352500", "161800.842500", "161802.332500", "161803.822500", "161805.312500", "161806.802500", "161808.292500", "161809.782500", "161811.272500", "161812.762500", "161814.252500", "161815.742500", "161817.232500", "161818.722500", "161820.212500", "161821.702500", "161823.192500", "161824.682500", "161826.172500", "161827.662500", "161829.152500", "161830.642500", "161832.132500", "161833.622500", "161835.112500", "161836.602500", "161838.092500", "161839.582500", "161841.072500", "161842.562500", "161844.052500", "161845.542500", "161847.032500", "161848.522500", "161850.012500", "161851.502500", "161852.992500", "161854.482500", "161855.972500", "161857.462500", "161858.952500", "161900.442500", "161901.932500", "161903.422500", "161904.912500", "161906.402500", "161907.892500", "161909.382500", "161910.872500", "161912.362500", "161913.852500", "161915.342500", "161916.832500", "161918.322500", "161919.812500", "161921.302500", "161922.792500", "161924.282500", "161925.772500", "161927.262500", "161928.752500", "161930.242500", "161931.732500", "161933.222500", "161934.712500", "161936.202500", "161937.692500", "161939.182500", "161940.672500", "161942.162500", "161943.652500", "161945.142500", "161946.632500", "161948.122500", "161949.612500", "161951.102500", "161952.592500", "161954.082500", "161955.572500", "161957.062500", "161958.552500", "162000.042500", "162001.532500", "162003.022500", "162004.512500", "162006.002500", "162007.492500", "162008.982500", "162010.472500", "162011.962500", "162013.452500", "162014.942500", "162016.432500", "162017.922500", "162019.412500", "162020.902500", "162022.392500", "162023.882500", "162025.372500", "162026.862500", "162028.352500", "162029.842500", "162031.332500", "162032.822500", "162034.312500", "162035.802500", "162037.292500", "162038.782500", "162040.272500", "162041.762500", "162043.252500", "162044.742500", "162046.232500", "162047.722500", "162049.212500", "162050.702500", "162052.192500", "162053.682500", "162055.172500", "162056.662500", "162058.152500", "162059.642500", "162101.132500", "162102.622500", "162104.112500", "162105.602500", "162107.092500", "162108.582500", "162110.072500", "162111.562500", "162113.052500", "162114.542500", "162116.032500", "162117.522500", "162119.012500", "162120.502500", "162121.992500", "162123.482500", "162124.972500", "162126.462500", "162127.952500", "162129.442500", "162130.932500", "162132.422500", "162133.912500", "162135.402500", "162136.892500", "162138.382500", "162139.872500", "162141.362500", "162142.852500", "162144.342500", "162145.832500", "162147.322500", "162148.812500", "162150.302500", "162151.792500", "162153.282500", "162154.772500", "162156.262500", "162157.752500", "162159.242500", "162200.732500", "162202.222500", "162203.712500", "162205.202500", "162206.692500", "162208.182500", "162209.672500", "162211.162500", "162212.652500", "162214.142500", "162215.632500", "162217.122500", "162218.612500", "162220.102500", "162221.592500", "162223.082500", "162224.572500", "162226.062500", "162227.552500", "162229.042500", "162230.532500", "162232.022500", "162233.512500", "162235.002500", "162236.492500", "162237.982500", "162239.472500", "162240.962500", "162242.452500", "162243.942500", "162245.432500", "162246.922500", "162248.412500", "162249.902500", "162251.392500", "162252.882500", "162254.372500", "162255.862500", "162257.352500", "162258.842500", "162300.332500", "162301.822500", "162303.312500", "162304.802500", "162306.292500", "162307.782500", "162309.272500", "162310.762500", "162312.252500", "162313.742500", "162315.232500", "162316.722500", "162318.212500", "162319.702500", "162321.192500", "162322.682500", "162324.172500", "162325.662500", "162327.152500", "162328.642500", "162330.132500", "162331.622500"],
      "ContentTime": ["161325.156000", "161325.160000", "161325.162000", "161325.165000", "161325.168000", "161325.171000", "161325.173000", "161325.176000", "161325.179000", "161325.182000", "161325.185000", "161325.188000", "161345.102000", "161345.105000", "161345.108000", "161345.111000", "161345.117000", "161345.120000", "161345.123000", "161345.126000", "161345.128000", "161345.131000", "161345.161000", "161345.164000", "161345.167000", "161345.170000", "161345.173000", "161345.175000", "161345.178000", "161345.181000", "161345.184000", "161345.187000", "161405.102000", "161405.105000", "161405.107000", "161405.110000", "161405.113000", "161405.116000", "161405.119000", "161405.121000", "161405.124000", "161405.127000", "161405.130000", "161405.133000", "161405.144000", "161405.147000", "161405.150000", "161405.153000", "161405.156000", "161405.159000", "161405.162000", "161405.165000", "161405.168000", "161425.102000", "161425.105000", "161425.107000", "161425.110000", "161425.113000", "161425.121000", "161425.124000", "161425.127000", "161425.130000", "161425.133000", "161425.136000", "161425.138000", "161425.141000", "161425.144000", "161425.147000", "161425.150000", "161425.153000", "161425.156000", "161425.159000", "161425.161000", "161445.102000", "161445.105000", "161445.107000", "161445.120000", "161445.123000", "161445.126000", "161445.135000", "161445.138000", "161445.141000", "161445.144000", "161445.146000", "161445.149000", "161445.152000", "161445.155000", "161445.159000", "161445.161000", "161445.164000", "161445.167000", "161445.170000", "161445.173000", "161525.103000", "161525.106000", "161525.109000", "161525.111000", "161525.114000", "161525.117000", "161525.120000", "161525.123000", "161525.126000", "161525.128000", "161525.135000", "161525.138000", "161525.141000", "161525.144000", "161525.147000", "161525.150000", "161525.153000", "161525.155000", "161525.158000", "161525.161000", "161525.164000", "161525.167000", "161525.170000", "161525.173000", "161525.175000", "161525.178000", "161525.181000", "161525.184000", "161525.187000", "161525.190000", "161525.193000", "161525.195000", "161525.198000", "161605.102000", "161605.105000", "161605.107000", "161605.111000", "161605.114000", "161605.117000", "161605.119000", "161605.122000", "161605.125000", "161605.128000", "161605.131000", "161605.134000", "161605.137000", "161605.139000", "161605.142000", "161605.145000", "161605.148000", "161605.151000", "161605.153000", "161605.156000", "161605.159000", "161605.162000", "161605.165000", "161605.168000", "161605.170000", "161605.173000", "161645.102000", "161645.105000", "161645.108000", "161645.110000", "161645.113000", "161645.116000", "161645.119000", "161645.122000", "161645.125000", "161645.128000", "161645.131000", "161645.134000", "161645.137000", "161645.139000", "161645.142000", "161645.145000", "161645.148000", "161645.151000", "161645.154000", "161645.157000", "161645.160000", "161645.175000", "161645.178000", "161645.181000", "161645.184000", "161645.187000", "161645.190000", "161725.103000", "161725.106000", "161725.109000", "161725.112000", "161725.115000", "161725.118000", "161725.121000", "161725.124000", "161725.127000", "161725.130000", "161725.136000", "161725.139000", "161725.142000", "161725.145000", "161725.147000", "161725.150000", "161725.153000", "161725.156000", "161725.159000", "161725.161000", "161725.164000", "161725.167000", "161725.170000", "161725.173000", "161725.176000", "161725.178000", "161725.181000", "161805.102000", "161805.105000", "161805.108000", "161805.111000", "161805.113000", "161805.116000", "161805.119000", "161805.122000", "161805.125000", "161805.128000", "161805.131000", "161805.134000", "161805.137000", "161805.140000", "161805.143000", "161805.145000", "161805.148000", "161805.151000", "161805.154000", "161805.157000", "161805.160000", "161805.163000", "161805.166000", "161805.168000", "161805.171000", "161805.174000", "161805.177000", "161845.102000", "161845.105000", "161845.108000", "161845.110000", "161845.113000", "161845.116000", "161845.119000", "161845.122000", "161845.125000", "161845.128000", "161845.130000", "161845.133000", "161845.136000", "161845.139000", "161845.142000", "161845.145000", "161845.148000", "161845.151000", "161845.153000", "161845.156000", "161845.159000", "161845.162000", "161845.165000", "161845.168000", "161845.171000", "161845.174000", "161845.177000", "161925.103000", "161925.106000", "161925.109000", "161925.112000", "161925.115000", "161925.117000", "161925.120000", "161925.123000", "161925.126000", "161925.129000", "161925.132000", "161925.135000", "161925.137000", "161925.140000", "161925.143000", "161925.146000", "161925.149000", "161925.152000", "161925.155000", "161925.157000", "161925.160000", "161925.163000", "161925.166000", "161925.169000", "161925.172000", "161925.174000", "161925.177000", "162005.103000", "162005.106000", "162005.109000", "162005.111000", "162005.114000", "162005.117000", "162005.120000", "162005.123000", "162005.125000", "162005.128000", "162005.131000", "162005.134000", "162005.137000", "162005.140000", "162005.142000", "162005.145000", "162005.148000", "162005.151000", "162005.154000", "162005.156000", "162005.159000", "162005.162000", "162005.165000", "162005.168000", "162005.171000", "162005.174000", "162005.176000", "162045.102000", "162045.105000", "162045.108000", "162045.110000", "162045.113000", "162045.116000", "162045.119000", "162045.122000", "162045.125000", "162045.127000", "162045.130000", "162045.133000", "162045.136000", "162045.139000", "162045.141000", "162045.144000", "162045.147000", "162045.150000", "162045.153000", "162045.156000", "162045.158000", "162045.161000", "162045.164000", "162045.167000", "162045.171000", "162045.174000", "162125.102000", "162125.105000", "162125.108000", "162125.110000", "162125.113000", "162125.116000", "162125.119000", "162125.122000", "162125.124000", "162125.127000", "162125.130000", "162125.133000", "162125.136000", "162125.139000", "162125.141000", "162125.144000", "162125.147000", "162125.150000", "162125.153000", "162125.155000", "162125.158000", "162125.175000", "162125.178000", "162125.181000", "162125.183000", "162125.186000", "162125.189000", "162205.103000", "162205.106000", "162205.109000", "162205.111000", "162205.114000", "162205.117000", "162205.120000", "162205.123000", "162205.125000", "162205.128000", "162205.131000", "162205.134000", "162205.137000", "162205.140000", "162205.142000", "162205.145000", "162205.148000", "162205.151000", "162205.154000", "162205.156000", "162205.159000", "162205.162000", "162205.165000", "162205.168000", "162205.171000", "162205.173000", "162205.176000", "162225.103000", "162225.106000", "162225.109000", "162225.112000", "162225.115000", "162225.118000", "162225.120000", "162225.123000", "162225.126000", "162225.129000", "162225.132000", "162225.135000", "162225.138000", "162305.102000", "162305.105000", "162305.108000", "162305.110000", "162305.113000", "162305.116000", "162305.119000", "162305.122000", "162305.125000", "162305.128000", "162305.130000", "162305.133000", "162305.136000", "162305.139000", "162305.142000", "162305.144000", "162305.147000", "162305.150000", "162305.153000", "162305.156000", "162305.158000", "162305.161000", "162305.164000", "162305.167000", "162305.170000", "162305.172000", "162305.175000", "162333.724000", "162333.727000", "162333.730000", "162333.733000", "162333.736000", "162333.739000", "162333.741000", "162333.744000", "162333.747000", "162333.750000", "162333.753000", "162333.756000", "162333.759000", "162333.761000", "162333.764000", "162333.767000", "162333.770000", "162333.773000", "162333.775000", "162333.778000"],
