{
  "AcquisitionMatrixPE": 104,
  "AcquisitionNumber": 1,
  "AcquisitionTime": "11:45:27.640000",
  "BandwidthPerPixelPhaseEncode": 17.17,
  "BaseResolution": 104,
  "BodyPartExamined": "BRAIN",
  "CoilCombinationMethod": "Sum of Squares",
  "ConsistencyInfo": "N4_VE11C_LATEST_20160120",
  "ConversionSoftware": "dcm2niix",
  "ConversionSoftwareVersion": "v1.0.20211006",
  "DerivedVendorReportedEchoSpacing": 0.000560011,
  "DeviceSerialNumber": "167006",
  "DwellTime": 2.1e-06,
  "EchoTime": 0.037,
  "EchoTrainLength": 104,
  "EffectiveEchoSpacing": 0.000560011,
  "FlipAngle": 52,
  "HeudiconvVersion": "0.11.3.post9+gc939bf8",
  "ImageComments": "Unaliased MB4/PE3/LB",
  "ImageOrientationPatientDICOM": [0.996632, 0.0811501, -0.0118253, -0.0794869, 0.920432, -0.382736],
  "ImageOrientationText": "Tra>Cor(-22.5)>Sag(1.2)",
  "ImageType": [
    "ORIGINAL",
    "PRIMARY",
    "M",
    "MB",
    "ND",
    "MOSAIC"
],
  "ImagingFrequency": 123.259,
  "InPlanePhaseEncodingDirectionDICOM": "COL",
  "InstitutionAddress": "Chemin Queen-Mary 4565,Montreal,District,CA,H3W 1W5",
  "InstitutionName": "IUGM",
  "InstitutionalDepartmentName": "Department",
  "MRAcquisitionType": "2D",
  "MagneticFieldStrength": 3,
  "Manufacturer": "Siemens",
  "ManufacturersModelName": "Prisma_fit",
  "MatrixCoilMode": "SENSE",
  "Modality": "MR",
  "MultibandAccelerationFactor": 4,
  "PartialFourier": 1,
  "PatientPosition": "HFS",
  "PercentPhaseFOV": 100,
  "PercentSampling": 100,
  "PhaseEncodingDirection": "j",
  "PhaseEncodingSteps": 104,
  "PhaseResolution": 1,
  "PixelBandwidth": 2290,
  "ProcedureStepDescription": "video^friends",
  "ProtocolName": "func_task-friends-s06e15a",
  "PulseSequenceDetails": "%CustomerSeq%\\cmrr_mbep2d_bold",
  "ReceiveCoilActiveElements": "HC1-7;NC1,2",
  "ReceiveCoilName": "HeadNeck_64",
  "ReconMatrixPE": 104,
  "RepetitionTime": 1.49,
  "SAR": 0.0494119,
  "ScanOptions": "FS",
  "ScanningSequence": "EP",
  "SequenceName": "epfid2d1_104",
  "SequenceVariant": "SK\\SS",
  "SeriesDescription": "func_task-friends-s06e15a",
  "SeriesNumber": 10,
  "ShimSetting": [630, -7195, -8805, 664, 109, -49, -70, -14],
  "SliceThickness": 2,
  "SliceTiming": [0, 0.785, 0.0975, 0.8825, 0.1975, 0.98, 0.295, 1.0775, 0.3925, 1.175, 0.49, 1.275, 0.5875, 1.3725, 0.685, 0, 0.785, 0.0975, 0.8825, 0.1975, 0.98, 0.295, 1.0775, 0.3925, 1.175, 0.49, 1.275, 0.5875, 1.3725, 0.685, 0, 0.785, 0.0975, 0.8825, 0.1975, 0.98, 0.295, 1.0775, 0.3925, 1.175, 0.49, 1.275, 0.5875, 1.3725, 0.685, 0, 0.785, 0.0975, 0.8825, 0.1975, 0.98, 0.295, 1.0775, 0.3925, 1.175, 0.49, 1.275, 0.5875, 1.3725, 0.685],
  "SoftwareVersions": "syngo MR E11",
  "SpacingBetweenSlices": 2,
  "StationName": "MRC35049",
  "TaskName": "s06e15a",
  "TotalReadoutTime": 0.0576811,
  "TxRefAmp": 263.648,
  "WipMemBlock": "38339334-bfc9-4ec6-a993-0df3cc105463||Sequence: R017 ve11c/master r/75a17815+; Jun 28 2022 16:32:11 by eja",
  "dcmmeta_affine": [
    [-1.9932634830474854, -0.15897370874881744, 0.04034935683012009, 109.54096984863281],
    [-0.1623002141714096, 1.8408640623092651, -0.7647733688354492, -58.34044647216797],
    [-0.023650584742426872, 0.7654717564582825, 1.8475643396377563, -61.171295166015625],
    [0.0, 0.0, 0.0, 1.0]
],
  "dcmmeta_reorient_transform": [
    [0.0, -1.0, 0.0, 103.0],
    [1.0, 0.0, 0.0, 0.0],
    [0.0, 0.0, 1.0, 0.0],
    [0.0, 0.0, 0.0, 1.0]
],
  "dcmmeta_shape": [104, 104, 60, 456],
  "dcmmeta_slice_dim": 2,
  "dcmmeta_version": 0.6,
  "global": {
    "const": {
      "AcquisitionMatrix": [104, 0, 0, 104],
      "AngioFlag": "N",
      "BitsAllocated": 16,
      "BitsStored": 16,
      "BodyPartExamined": "BRAIN",
      "Columns": 832,
      "EchoNumbers": 1,
      "EchoTime": 37.0,
      "EchoTrainLength": 104,
      "FlipAngle": 52.0,
      "HighBit": 15,
      "ImageOrientationPatient": [0.99663173883955, 0.08115010532618, -0.0118252925208, -0.0794868510373, 0.92043201460208, -0.3827358710752],
      "ImagePositionPatient": [-760.84815508803, -860.42033340861, 304.91281993564],
      "ImageType": [
        "ORIGINAL",
        "PRIMARY",
        "M",
        "MB",
        "ND",
        "MOSAIC"
],
      "ImagedNucleus": "1H",
      "ImagingFrequency": 123.258807,
      "InPlanePhaseEncodingDirection": "COL",
      "MRAcquisitionType": "2D",
      "MagneticFieldStrength": 3.0,
      "Manufacturer": "SIEMENS",
      "ManufacturerModelName": "Prisma_fit",
      "Modality": "MR",
      "NumberOfAverages": 1.0,
      "NumberOfPhaseEncodingSteps": 104,
      "PercentPhaseFieldOfView": 100.0,
      "PercentSampling": 100.0,
      "PerformedProcedureStepStartTime": "114133.644000",
      "PhotometricInterpretation": "MONOCHROME2",
      "PixelBandwidth": 2290.0,
      "PixelRepresentation": 0,
      "PixelSpacing": [2.0, 2.0],
      "ProtocolName": "func_task-friends-s06e15a",
      "RepetitionTime": 1490.0,
      "Rows": 832,
      "SAR": 0.04941193050219,
      "SamplesPerPixel": 1,
      "ScanOptions": "FS",
      "ScanningSequence": "EP",
      "SequenceName": "epfid2d1_104",
      "SequenceVariant": [
        "SK",
        "SS"
],
      "SeriesDescription": "func_task-friends-s06e15a",
      "SeriesNumber": 10,
      "SeriesTime": "114638.113000",
      "SliceLocation": -31.990388022562,
      "SliceThickness": 2.0,
      "SmallestImagePixelValue": 0,
      "SoftwareVersions": "syngo MR E11",
      "SpacingBetweenSlices": 2.0000000440782,
      "SpecificCharacterSet": "ISO_IR 100",
      "StudyID": "1",
      "StudyTime": "114133.571000",
      "TransmitCoilName": "Body",
      "VariableFlipAngleFlag": "N",
      "WindowCenterWidthExplanation": "Algo1",
      "dBdt": 0.0},
    "slices": {}
  },
  "time": {
    "samples": {
      "AcquisitionNumber": [1, 2, 3, 4, 5, 6, 7, 8, 9, 10, 11, 12, 13, 14, 15, 16, 17, 18, 19, 20, 21, 22, 23, 24, 25, 26, 27, 28, 29, 30, 31, 32, 33, 34, 35, 36, 37, 38, 39, 40, 41, 42, 43, 44, 45, 46, 47, 48, 49, 50, 51, 52, 53, 54, 55, 56, 57, 58, 59, 60, 61, 62, 63, 64, 65, 66, 67, 68, 69, 70, 71, 72, 73, 74, 75, 76, 77, 78, 79, 80, 81, 82, 83, 84, 85, 86, 87, 88, 89, 90, 91, 92, 93, 94, 95, 96, 97, 98, 99, 100, 101, 102, 103, 104, 105, 106, 107, 108, 109, 110, 111, 112, 113, 114, 115, 116, 117, 118, 119, 120, 121, 122, 123, 124, 125, 126, 127, 128, 129, 130, 131, 132, 133, 134, 135, 136, 137, 138, 139, 140, 141, 142, 143, 144, 145, 146, 147, 148, 149, 150, 151, 152, 153, 154, 155, 156, 157, 158, 159, 160, 161, 162, 163, 164, 165, 166, 167, 168, 169, 170, 171, 172, 173, 174, 175, 176, 177, 178, 179, 180, 181, 182, 183, 184, 185, 186, 187, 188, 189, 190, 191, 192, 193, 194, 195, 196, 197, 198, 199, 200, 201, 202, 203, 204, 205, 206, 207, 208, 209, 210, 211, 212, 213, 214, 215, 216, 217, 218, 219, 220, 221, 222, 223, 224, 225, 226, 227, 228, 229, 230, 231, 232, 233, 234, 235, 236, 237, 238, 239, 240, 241, 242, 243, 244, 245, 246, 247, 248, 249, 250, 251, 252, 253, 254, 255, 256, 257, 258, 259, 260, 261, 262, 263, 264, 265, 266, 267, 268, 269, 270, 271, 272, 273, 274, 275, 276, 277, 278, 279, 280, 281, 282, 283, 284, 285, 286, 287, 288, 289, 290, 291, 292, 293, 294, 295, 296, 297, 298, 299, 300, 301, 302, 303, 304, 305, 306, 307, 308, 309, 310, 311, 312, 313, 314, 315, 316, 317, 318, 319, 320, 321, 322, 323, 324, 325, 326, 327, 328, 329, 330, 331, 332, 333, 334, 335, 336, 337, 338, 339, 340, 341, 342, 343, 344, 345, 346, 347, 348, 349, 350, 351, 352, 353, 354, 355, 356, 357, 358, 359, 360, 361, 362, 363, 364, 365, 366, 367, 368, 369, 370, 371, 372, 373, 374, 375, 376, 377, 378, 379, 380, 381, 382, 383, 384, 385, 386, 387, 388, 389, 390, 391, 392, 393, 394, 395, 396, 397, 398, 399, 400, 401, 402, 403, 404, 405, 406, 407, 408, 409, 410, 411, 412, 413, 414, 415, 416, 417, 418, 419, 420, 421, 422, 423, 424, 425, 426, 427, 428, 429, 430, 431, 432, 433, 434, 435, 436, 437, 438, 439, 440, 441, 442, 443, 444, 445, 446, 447, 448, 449, 450, 451, 452, 453, 454, 455, 456],
      "AcquisitionTime": ["114527.640000", "114529.130000", "114530.620000", "114532.110000", "114533.600000", "114535.090000", "114536.580000", "114538.070000", "114539.560000", "114541.050000", "114542.540000", "114544.030000", "114545.520000", "114547.010000", "114548.500000", "114549.990000", "114551.480000", "114552.970000", "114554.460000", "114555.950000", "114557.440000", "114558.930000", "114600.420000", "114601.910000", "114603.400000", "114604.890000", "114606.380000", "114607.870000", "114609.360000", "114610.850000", "114612.340000", "114613.830000", "114615.320000", "114616.810000", "114618.300000", "114619.790000", "114621.280000", "114622.770000", "114624.260000", "114625.750000", "114627.240000", "114628.730000", "114630.220000", "114631.710000", "114633.200000", "114634.690000", "114636.180000", "114637.670000", "114639.160000", "114640.650000", "114642.140000", "114643.630000", "114645.120000", "114646.610000", "114648.100000", "114649.590000", "114651.080000", "114652.570000", "114654.060000", "114655.550000", "114657.040000", "114658.530000", "114700.020000", "114701.510000", "114703.000000", "114704.490000", "114705.980000", "114707.470000", "114708.960000", "114710.450000", "114711.940000", "114713.430000", "114714.920000", "114716.410000", "114717.900000", "114719.390000", "114720.880000", "114722.370000", "114723.860000", "114725.350000", "114726.840000", "114728.330000", "114729.820000", "114731.310000", "114732.800000", "114734.290000", "114735.780000", "114737.270000", "114738.760000", "114740.250000", "114741.740000", "114743.230000", "114744.720000", "114746.210000", "114747.700000", "114749.190000", "114750.680000", "114752.170000", "114753.660000", "114755.150000", "114756.640000", "114758.130000", "114759.620000", "114801.110000", "114802.600000", "114804.090000", "114805.580000", "114807.070000", "114808.560000", "114810.050000", "114811.540000", "114813.030000", "114814.520000", "114816.010000", "114817.500000", "114818.990000", "114820.480000", "114821.970000", "114823.460000", "114824.950000", "114826.440000", "114827.930000", "114829.420000", "114830.910000", "114832.400000", "114833.890000", "114835.380000", "114836.870000", "114838.360000", "114839.850000", "114841.340000", "114842.830000", "114844.320000", "114845.810000", "114847.300000", "114848.790000", "114850.280000", "114851.770000", "114853.260000", "114854.750000", "114856.240000", "114857.730000", "114859.220000", "114900.710000", "114902.200000", "114903.690000", "114905.180000", "114906.670000", "114908.160000", "114909.650000", "114911.140000", "114912.630000", "114914.120000", "114915.610000", "114917.100000", "114918.590000", "114920.080000", "114921.570000", "114923.060000", "114924.550000", "114926.040000", "114927.530000", "114929.020000", "114930.510000", "114932.000000", "114933.490000", "114934.980000", "114936.470000", "114937.960000", "114939.450000", "114940.940000", "114942.430000", "114943.920000", "114945.410000", "114946.900000", "114948.390000", "114949.880000", "114951.370000", "114952.860000", "114954.350000", "114955.840000", "114957.330000", "114958.820000", "115000.310000", "115001.800000", "115003.290000", "115004.780000", "115006.270000", "115007.760000", "115009.250000", "115010.740000", "115012.230000", "115013.720000", "115015.210000", "115016.700000", "115018.190000", "115019.680000", "115021.170000", "115022.660000", "115024.150000", "115025.640000", "115027.130000", "115028.620000", "115030.110000", "115031.600000", "115033.090000", "115034.580000", "115036.070000", "115037.560000", "115039.050000", "115040.540000", "115042.030000", "115043.520000", "115045.010000", "115046.500000", "115047.990000", "115049.480000", "115050.970000", "115052.460000", "115053.950000", "115055.440000", "115056.930000", "115058.420000", "115059.910000", "115101.400000", "115102.890000", "115104.380000", "115105.870000", "115107.360000", "115108.850000", "115110.340000", "115111.830000", "115113.320000", "115114.810000", "115116.300000", "115117.790000", "115119.280000", "115120.770000", "115122.260000", "115123.750000", "115125.240000", "115126.730000", "115128.220000", "115129.710000", "115131.200000", "115132.690000", "115134.180000", "115135.670000", "115137.160000", "115138.650000", "115140.140000", "115141.630000", "115143.120000", "115144.610000", "115146.100000", "115147.590000", "115149.080000", "115150.570000", "115152.060000", "115153.550000", "115155.040000", "115156.530000", "115158.020000", "115159.510000", "115201.000000", "115202.490000", "115203.980000", "115205.470000", "115206.960000", "115208.450000", "115209.940000", "115211.430000", "115212.920000", "115214.410000", "115215.900000", "115217.390000", "115218.880000", "115220.370000", "115221.860000", "115223.350000", "115224.840000", "115226.330000", "115227.820000", "115229.310000", "115230.800000", "115232.290000", "115233.780000", "115235.270000", "115236.760000", "115238.250000", "115239.740000", "115241.230000", "115242.720000", "115244.210000", "115245.700000", "115247.190000", "115248.680000", "115250.170000", "115251.660000", "115253.150000", "115254.640000", "115256.130000", "115257.620000", "115259.110000", "115300.600000", "115302.090000", "115303.580000", "115305.070000", "115306.560000", "115308.050000", "115309.540000", "115311.030000", "115312.520000", "115314.010000", "115315.500000", "115316.990000", "115318.480000", "115319.970000", "115321.460000", "115322.950000", "115324.440000", "115325.930000", "115327.420000", "115328.910000", "115330.400000", "115331.890000", "115333.380000", "115334.870000", "115336.360000", "115337.850000", "115339.340000", "115340.830000", "115342.320000", "115343.810000", "115345.300000", "115346.790000", "115348.280000", "115349.770000", "115351.260000", "115352.750000", "115354.240000", "115355.730000", "115357.220000", "115358.710000", "115400.200000", "115401.690000", "115403.180000", "115404.670000", "115406.160000", "115407.650000", "115409.140000", "115410.630000", "115412.120000", "115413.610000", "115415.100000", "115416.590000", "115418.080000", "115419.570000", "115421.060000", "115422.550000", "115424.040000", "115425.530000", "115427.020000", "115428.510000", "115430.000000", "115431.490000", "115432.980000", "115434.470000", "115435.960000", "115437.450000", "115438.940000", "115440.430000", "115441.920000", "115443.410000", "115444.900000", "115446.390000", "115447.880000", "115449.370000", "115450.860000", "115452.350000", "115453.840000", "115455.330000", "115456.820000", "115458.310000", "115459.800000", "115501.290000", "115502.780000", "115504.270000", "115505.760000", "115507.250000", "115508.740000", "115510.230000", "115511.720000", "115513.210000", "115514.700000", "115516.190000", "115517.680000", "115519.170000", "115520.660000", "115522.150000", "115523.640000", "115525.130000", "115526.620000", "115528.110000", "115529.600000", "115531.090000", "115532.580000", "115534.070000", "115535.560000", "115537.050000", "115538.540000", "115540.030000", "115541.520000", "115543.010000", "115544.500000", "115545.990000", "115547.480000", "115548.970000", "115550.460000", "115551.950000", "115553.440000", "115554.930000", "115556.420000", "115557.910000", "115559.400000", "115600.890000", "115602.380000", "115603.870000", "115605.360000", "115606.850000", "115608.340000", "115609.830000", "115611.320000", "115612.810000", "115614.300000", "115615.790000", "115617.280000", "115618.770000", "115620.260000", "115621.750000", "115623.240000", "115624.730000", "115626.220000", "115627.710000", "115629.200000", "115630.690000", "115632.180000", "115633.670000", "115635.160000", "115636.650000", "115638.140000", "115639.630000", "115641.120000", "115642.610000", "115644.100000", "115645.590000"],
      "ContentTime": ["114638.116000", "114638.119000", "114638.122000", "114638.133000", "114638.136000", "114638.139000", "114638.142000", "114638.145000", "114638.147000", "114638.150000", "114638.153000", "114638.164000", "114638.167000", "114638.170000", "114638.173000", "114638.176000", "114638.178000", "114638.181000", "114638.184000", "114638.187000", "114658.078000", "114658.081000", "114658.084000", "114658.087000", "114658.090000", "114658.093000", "114658.096000", "114658.099000", "114658.102000", "114658.105000", "114658.107000", "114658.110000", "114658.113000", "114658.116000", "114658.119000", "114658.122000", "114658.124000", "114658.127000", "114658.130000", "114658.133000", "114718.077000", "114718.080000", "114718.083000", "114718.085000", "114718.088000", "114718.091000", "114718.094000", "114718.097000", "114718.100000", "114718.103000", "114718.105000", "114718.108000", "114718.111000", "114718.114000", "114718.122000", "114718.125000", "114718.128000", "114718.131000", "114718.134000", "114718.136000", "114738.077000", "114738.080000", "114738.083000", "114738.085000", "114738.088000", "114738.091000", "114738.094000", "114738.097000", "114738.100000", "114738.103000", "114738.105000", "114738.108000", "114738.111000", "114738.114000", "114738.117000", "114738.120000", "114738.122000", "114738.125000", "114738.128000", "114738.131000", "114738.134000", "114818.077000", "114818.080000", "114818.083000", "114818.086000", "114818.089000", "114818.091000", "114818.095000", "114818.097000", "114818.100000", "114818.103000", "114818.106000", "114818.118000", "114818.122000", "114818.125000", "114818.128000", "114818.131000", "114818.133000", "114818.136000", "114818.139000", "114818.142000", "114818.145000", "114818.148000", "114818.151000", "114818.154000", "114818.157000", "114818.160000", "114818.163000", "114818.166000", "114818.169000", "114818.172000", "114818.175000", "114818.178000", "114858.078000", "114858.081000", "114858.084000", "114858.086000", "114858.089000", "114858.092000", "114858.095000", "114858.098000", "114858.101000", "114858.104000", "114858.106000", "114858.109000", "114858.112000", "114858.115000", "114858.118000", "114858.120000", "114858.123000", "114858.126000", "114858.129000", "114858.132000", "114858.134000", "114858.137000", "114858.140000", "114858.143000", "114858.146000", "114858.148000", "114858.151000", "114938.077000", "114938.080000", "114938.083000", "114938.086000", "114938.089000", "114938.091000", "114938.094000", "114938.097000", "114938.100000", "114938.103000", "114938.106000", "114938.109000", "114938.111000", "114938.114000", "114938.117000", "114938.120000", "114938.123000", "114938.126000", "114938.128000", "114938.131000", "114938.134000", "114938.137000", "114938.140000", "114938.143000", "114938.146000", "114938.148000", "114938.151000", "115018.077000", "115018.080000", "115018.083000", "115018.085000", "115018.088000", "115018.091000", "115018.094000", "115018.097000", "115018.100000", "115018.102000", "115018.105000", "115018.108000", "115018.111000", "115018.114000", "115018.117000", "115018.119000", "115018.122000", "115018.125000", "115018.128000", "115018.131000", "115018.134000", "115018.136000", "115018.139000", "115018.142000", "115018.145000", "115018.148000", "115018.150000", "115058.077000", "115058.080000", "115058.083000", "115058.086000", "115058.089000", "115058.091000", "115058.094000", "115058.097000", "115058.100000", "115058.103000", "115058.106000", "115058.109000", "115058.111000", "115058.114000", "115058.117000", "115058.120000", "115058.123000", "115058.126000", "115058.129000", "115058.131000", "115058.134000", "115058.137000", "115058.140000", "115058.143000", "115058.146000", "115058.149000", "115058.151000", "115138.078000", "115138.081000", "115138.084000", "115138.087000", "115138.089000", "115138.092000", "115138.095000", "115138.098000", "115138.101000", "115138.103000", "115138.106000", "115138.109000", "115138.112000", "115138.115000", "115138.118000", "115138.121000", "115138.123000", "115138.126000", "115138.129000", "115138.132000", "115138.135000", "115138.138000", "115138.140000", "115138.143000", "115138.146000", "115138.149000", "115138.152000", "115218.077000", "115218.080000", "115218.083000", "115218.086000", "115218.089000", "115218.092000", "115218.095000", "115218.098000", "115218.101000", "115218.103000", "115218.106000", "115218.109000", "115218.112000", "115218.115000", "115218.118000", "115218.120000", "115218.123000", "115218.126000", "115218.129000", "115218.132000", "115218.135000", "115218.138000", "115218.140000", "115218.143000", "115218.146000", "115218.149000", "115218.152000", "115258.077000", "115258.080000", "115258.083000", "115258.086000", "115258.088000", "115258.091000", "115258.110000", "115258.112000", "115258.115000", "115258.118000", "115258.121000", "115258.124000", "115258.127000", "115258.129000", "115258.132000", "115258.135000", "115258.140000", "115258.143000", "115258.146000", "115258.149000", "115258.152000", "115258.155000", "115258.158000", "115258.161000", "115258.164000", "115258.167000", "115338.078000", "115338.081000", "115338.084000", "115338.087000", "115338.090000", "115338.092000", "115338.095000", "115338.098000", "115338.101000", "115338.104000", "115338.107000", "115338.110000", "115338.113000", "115338.115000", "115338.118000", "115338.121000", "115338.124000", "115338.127000", "115338.130000", "115338.132000", "115338.135000", "115338.138000", "115338.141000", "115338.144000", "115338.147000", "115338.149000", "115338.152000", "115418.077000", "115418.080000", "115418.083000", "115418.085000", "115418.088000", "115418.091000", "115418.094000", "115418.097000", "115418.100000", "115418.102000", "115418.105000", "115418.108000", "115418.111000", "115418.114000", "115418.117000", "115418.127000", "115418.130000", "115418.133000", "115418.136000", "115418.139000", "115418.150000", "115418.152000", "115418.155000", "115418.158000", "115418.161000", "115418.164000", "115418.167000", "115458.077000", "115458.080000", "115458.083000", "115458.086000", "115458.089000", "115458.091000", "115458.095000", "115458.097000", "115458.100000", "115458.103000", "115458.106000", "115458.109000", "115458.112000", "115458.114000", "115458.117000", "115458.120000", "115458.123000", "115458.126000", "115458.128000", "115458.131000", "115458.134000", "115458.137000", "115458.140000", "115458.143000", "115458.145000", "115458.148000", "115458.151000", "115538.077000", "115538.080000", "115538.083000", "115538.086000", "115538.089000", "115538.092000", "115538.095000", "115538.097000", "115538.100000", "115538.103000", "115538.106000", "115538.109000", "115538.112000", "115538.115000", "115538.117000", "115538.120000", "115538.123000", "115538.126000", "115538.129000", "115538.132000", "115538.134000", "115538.137000", "115538.140000", "115538.143000", "115538.146000", "115538.149000", "115538.152000", "115618.078000", "115618.081000", "115618.084000", "115618.086000", "115618.089000", "115618.092000", "115618.095000", "115618.098000", "115618.101000", "115618.104000", "115618.106000", "115618.109000", "115618.112000", "115618.115000", "115618.118000", "115618.120000", "115618.123000", "115618.126000", "115618.129000", "115618.132000", "115618.135000", "115618.137000", "115618.140000", "115618.143000", "115618.146000", "115618.149000", "115618.151000", "115647.841000", "115647.845000", "115647.848000", "115647.851000", "115647.855000", "115647.858000", "115647.861000", "115647.864000", "115647.867000", "115647.870000", "115647.873000", "115647.875000", "115647.878000", "115647.881000", "115647.884000", "115647.887000", "115647.890000", "115647.893000", "115647.896000", "115647.898000"],
